  10.0000       116
  10.0194        90
  10.0389       106
  10.0583        95
  10.0778       112
  10.0972        96
  10.1166        96
  10.1361       110
  10.1555       101
  10.1750       112
  10.1944        95
  10.2138       117
  10.2333       107
  10.2527       116
  10.2722        99
  10.2916       111
  10.3110       119
  10.3305       118
  10.3499       102
  10.3694       127
  10.3888        92
  10.4082       112
  10.4277        88
  10.4471        98
  10.4666       107
  10.4860       110
  10.5054       102
  10.5249       111
  10.5443        95
  10.5638        89
  10.5832        96
  10.6026        99
  10.6221       114
  10.6415        97
  10.6610       117
  10.6804       106
  10.6998       108
  10.7193        99
  10.7387        91
  10.7582       104
  10.7776        95
  10.7970       101
  10.8165       118
  10.8359       105
  10.8554        86
  10.8748        92
  10.8942       109
  10.9137       113
  10.9331       112
  10.9526       113
  10.9720       115
  10.9914       138
  11.0109       109
  11.0303       112
  11.0498       104
  11.0692       118
  11.0886       109
  11.1081       125
  11.1275       125
  11.1470       103
  11.1664        96
  11.1858       110
  11.2053       117
  11.2247       115
  11.2442       104
  11.2636       124
  11.2830        98
  11.3025       126
  11.3219       114
  11.3414       101
  11.3608       125
  11.3802       121
  11.3997       103
  11.4191       115
  11.4386       126
  11.4580       112
  11.4774        97
  11.4969        99
  11.5163       114
  11.5358        97
  11.5552       119
  11.5746       112
  11.5941       114
  11.6135       117
  11.6330       121
  11.6524       116
  11.6718       109
  11.6913       105
  11.7107       119
  11.7302       116
  11.7496       132
  11.7690       120
  11.7885       106
  11.8079       108
  11.8274       121
  11.8468       113
  11.8662       123
  11.8857       103
  11.9051       109
  11.9246       131
  11.9440       110
  11.9634       132
  11.9829       119
  12.0023       122
  12.0217       104
  12.0412       122
  12.0606       106
  12.0801       117
  12.0995       127
  12.1189       105
  12.1384       124
  12.1578       105
  12.1773       107
  12.1967       128
  12.2161       112
  12.2356       121
  12.2550       122
  12.2745       101
  12.2939       122
  12.3133        98
  12.3328       110
  12.3522       131
  12.3717       118
  12.3911       134
  12.4105       101
  12.4300       128
  12.4494       131
  12.4689       127
  12.4883       112
  12.5077       135
  12.5272       126
  12.5466       143
  12.5661       121
  12.5855       140
  12.6049       105
  12.6244       112
  12.6438       102
  12.6633       132
  12.6827       121
  12.7021       113
  12.7216       109
  12.7410       131
  12.7605       113
  12.7799       130
  12.7993       113
  12.8188       116
  12.8382       117
  12.8577       123
  12.8771       125
  12.8965       112
  12.9160       112
  12.9354       106
  12.9549       128
  12.9743       141
  12.9937       109
  13.0132       130
  13.0326       105
  13.0521       135
  13.0715       139
  13.0909       115
  13.1104       130
  13.1298       117
  13.1493       124
  13.1687       126
  13.1881       126
  13.2076       132
  13.2270       131
  13.2465       135
  13.2659       118
  13.2853       139
  13.3048       137
  13.3242       130
  13.3437       126
  13.3631       117
  13.3825       142
  13.4020       134
  13.4214       126
  13.4409       123
  13.4603       105
  13.4797       117
  13.4992       123
  13.5186       134
  13.5381       139
  13.5575       127
  13.5769       129
  13.5964       135
  13.6158       128
  13.6353       130
  13.6547       124
  13.6741       122
  13.6936       118
  13.7130       142
  13.7325       148
  13.7519       139
  13.7713       129
  13.7908       137
  13.8102       134
  13.8297       131
  13.8491       143
  13.8685       141
  13.8880       119
  13.9074       123
  13.9269       152
  13.9463       146
  13.9657       129
  13.9852       122
  14.0046       142
  14.0241       115
  14.0435       131
  14.0629       153
  14.0824       147
  14.1018       156
  14.1213       141
  14.1407       119
  14.1601       161
  14.1796       110
  14.1990       135
  14.2185       149
  14.2379       134
  14.2573       140
  14.2768       131
  14.2962       138
  14.3157       145
  14.3351       116
  14.3545       132
  14.3740       132
  14.3934       142
  14.4129       126
  14.4323       156
  14.4517       138
  14.4712       145
  14.4906       152
  14.5101       144
  14.5295       127
  14.5489       136
  14.5684       127
  14.5878       156
  14.6073       138
  14.6267       139
  14.6461       135
  14.6656       158
  14.6850       148
  14.7045       126
  14.7239       153
  14.7433       157
  14.7628       124
  14.7822       145
  14.8017       142
  14.8211       158
  14.8405       130
  14.8600       139
  14.8794       146
  14.8989       136
  14.9183       128
  14.9377       143
  14.9572       154
  14.9766       139
  14.9961       129
  15.0155       123
  15.0349       143
  15.0544       124
  15.0738       145
  15.0933       144
  15.1127       122
  15.1321       126
  15.1516       125
  15.1710       147
  15.1905       142
  15.2099       147
  15.2293       158
  15.2488       174
  15.2682       166
  15.2877       139
  15.3071       149
  15.3265       136
  15.3460       129
  15.3654       166
  15.3849       136
  15.4043       131
  15.4237       164
  15.4432       146
  15.4626       131
  15.4821       157
  15.5015       128
  15.5209       145
  15.5404       163
  15.5598       163
  15.5793       160
  15.5987       137
  15.6181       133
  15.6376       139
  15.6570       149
  15.6765       156
  15.6959       134
  15.7153       156
  15.7348       140
  15.7542       133
  15.7737       151
  15.7931       150
  15.8125       152
  15.8320       135
  15.8514       126
  15.8708       168
  15.8903       158
  15.9097       158
  15.9292       146
  15.9486       164
  15.9680       156
  15.9875       161
  16.0069       171
  16.0264       159
  16.0458       155
  16.0652       149
  16.0847       143
  16.1041       136
  16.1236       169
  16.1430       161
  16.1624       152
  16.1819       150
  16.2013       141
  16.2208       166
  16.2402       147
  16.2596       171
  16.2791       155
  16.2985       151
  16.3180       145
  16.3374       130
  16.3568       173
  16.3763       160
  16.3957       155
  16.4152       133
  16.4346       137
  16.4540       161
  16.4735       152
  16.4929       140
  16.5124       171
  16.5318       151
  16.5512       162
  16.5707       150
  16.5901       157
  16.6096       158
  16.6290       165
  16.6484       154
  16.6679       155
  16.6873       148
  16.7068       166
  16.7262       160
  16.7456       140
  16.7651       174
  16.7845       154
  16.8040       165
  16.8234       172
  16.8428       147
  16.8623       150
  16.8817       173
  16.9012       149
  16.9206       167
  16.9400       159
  16.9595       140
  16.9789       164
  16.9984       177
  17.0178       153
  17.0372       164
  17.0567       150
  17.0761       167
  17.0956       183
  17.1150       179
  17.1344       173
  17.1539       175
  17.1733       168
  17.1928       171
  17.2122       164
  17.2316       154
  17.2511       175
  17.2705       169
  17.2900       156
  17.3094       157
  17.3288       200
  17.3483       163
  17.3677       150
  17.3872       173
  17.4066       173
  17.4260       157
  17.4455       170
  17.4649       176
  17.4844       167
  17.5038       189
  17.5232       169
  17.5427       165
  17.5621       157
  17.5816       159
  17.6010       152
  17.6204       163
  17.6399       143
  17.6593       169
  17.6788       177
  17.6982       163
  17.7176       164
  17.7371       174
  17.7565       170
  17.7760       186
  17.7954       183
  17.8148       163
  17.8343       169
  17.8537       156
  17.8732       167
  17.8926       179
  17.9120       174
  17.9315       192
  17.9509       166
  17.9704       141
  17.9898       174
  18.0092       158
  18.0287       161
  18.0481       179
  18.0676       186
  18.0870       156
  18.1064       151
  18.1259       161
  18.1453       168
  18.1648       175
  18.1842       176
  18.2036       165
  18.2231       171
  18.2425       165
  18.2620       195
  18.2814       186
  18.3008       204
  18.3203       155
  18.3397       168
  18.3592       170
  18.3786       172
  18.3980       173
  18.4175       140
  18.4369       189
  18.4564       179
  18.4758       186
  18.4952       181
  18.5147       169
  18.5341       176
  18.5536       181
  18.5730       200
  18.5924       171
  18.6119       183
  18.6313       186
  18.6508       195
  18.6702       186
  18.6896       180
  18.7091       178
  18.7285       166
  18.7480       184
  18.7674       182
  18.7868       210
  18.8063       159
  18.8257       197
  18.8452       188
  18.8646       201
  18.8840       186
  18.9035       170
  18.9229       188
  18.9424       195
  18.9618       172
  18.9812       163
  19.0007       172
  19.0201       184
  19.0396       199
  19.0590       189
  19.0784       167
  19.0979       173
  19.1173       197
  19.1368       189
  19.1562       189
  19.1756       187
  19.1951       172
  19.2145       186
  19.2340       150
  19.2534       203
  19.2728       193
  19.2923       165
  19.3117       192
  19.3312       170
  19.3506       204
  19.3700       173
  19.3895       202
  19.4089       203
  19.4284       176
  19.4478       187
  19.4672       174
  19.4867       196
  19.5061       178
  19.5256       194
  19.5450       189
  19.5644       161
  19.5839       170
  19.6033       200
  19.6228       183
  19.6422       192
  19.6616       182
  19.6811       184
  19.7005       179
  19.7199       189
  19.7394       211
  19.7588       181
  19.7783       182
  19.7977       218
  19.8171       211
  19.8366       184
  19.8560       196
  19.8755       185
  19.8949       184
  19.9143       170
  19.9338       182
  19.9532       196
  19.9727       205
  19.9921       165
  20.0115       192
  20.0310       189
  20.0504       167
  20.0699       209
  20.0893       200
  20.1087       184
  20.1282       183
  20.1476       186
  20.1671       182
  20.1865       198
  20.2059       201
  20.2254       223
  20.2448       204
  20.2643       209
  20.2837       186
  20.3031       194
  20.3226       203
  20.3420       197
  20.3615       217
  20.3809       200
  20.4003       186
  20.4198       197
  20.4392       201
  20.4587       199
  20.4781       175
  20.4975       202
  20.5170       197
  20.5364       191
  20.5559       220
  20.5753       186
  20.5947       208
  20.6142       201
  20.6336       217
  20.6531       180
  20.6725       216
  20.6919       167
  20.7114       190
  20.7308       222
  20.7503       180
  20.7697       206
  20.7891       200
  20.8086       211
  20.8280       192
  20.8475       193
  20.8669       195
  20.8863       228
  20.9058       200
  20.9252       211
  20.9447       191
  20.9641       203
  20.9835       202
  21.0030       199
  21.0224       190
  21.0419       197
  21.0613       193
  21.0807       216
  21.1002       210
  21.1196       208
  21.1391       221
  21.1585       190
  21.1779       209
  21.1974       213
  21.2168       203
  21.2363       198
  21.2557       209
  21.2751       187
  21.2946       213
  21.3140       175
  21.3335       231
  21.3529       225
  21.3723       216
  21.3918       201
  21.4112       213
  21.4307       201
  21.4501       232
  21.4695       246
  21.4890       208
  21.5084       210
  21.5279       198
  21.5473       206
  21.5667       247
  21.5862       193
  21.6056       205
  21.6251       212
  21.6445       218
  21.6639       238
  21.6834       221
  21.7028       247
  21.7223       210
  21.7417       224
  21.7611       226
  21.7806       211
  21.8000       231
  21.8195       205
  21.8389       221
  21.8583       237
  21.8778       194
  21.8972       232
  21.9167       207
  21.9361       213
  21.9555       214
  21.9750       189
  21.9944       249
  22.0139       237
  22.0333       211
  22.0527       213
  22.0722       210
  22.0916       201
  22.1111       228
  22.1305       208
  22.1499       233
  22.1694       221
  22.1888       212
  22.2083       239
  22.2277       234
  22.2471       200
  22.2666       221
  22.2860       204
  22.3055       249
  22.3249       215
  22.3443       212
  22.3638       229
  22.3832       216
  22.4027       209
  22.4221       226
  22.4415       178
  22.4610       219
  22.4804       231
  22.4999       218
  22.5193       199
  22.5387       242
  22.5582       213
  22.5776       224
  22.5971       203
  22.6165       217
  22.6359       210
  22.6554       212
  22.6748       208
  22.6943       197
  22.7137       198
  22.7331       216
  22.7526       231
  22.7720       217
  22.7915       207
  22.8109       238
  22.8303       230
  22.8498       217
  22.8692       209
  22.8887       238
  22.9081       209
  22.9275       210
  22.9470       220
  22.9664       210
  22.9859       199
  23.0053       220
  23.0247       226
  23.0442       228
  23.0636       244
  23.0831       194
  23.1025       209
  23.1219       227
  23.1414       207
  23.1608       223
  23.1803       239
  23.1997       202
  23.2191       241
  23.2386       238
  23.2580       227
  23.2775       237
  23.2969       222
  23.3163       223
  23.3358       215
  23.3552       236
  23.3747       245
  23.3941       224
  23.4135       216
  23.4330       206
  23.4524       206
  23.4719       221
  23.4913       215
  23.5107       214
  23.5302       229
  23.5496       259
  23.5691       202
  23.5885       230
  23.6079       244
  23.6274       217
  23.6468       223
  23.6662       244
  23.6857       226
  23.7051       190
  23.7246       225
  23.7440       229
  23.7634       204
  23.7829       247
  23.8023       231
  23.8218       231
  23.8412       242
  23.8606       222
  23.8801       233
  23.8995       227
  23.9190       257
  23.9384       217
  23.9578       226
  23.9773       218
  23.9967       234
  24.0162       204
  24.0356       224
  24.0550       215
  24.0745       210
  24.0939       221
  24.1134       245
  24.1328       230
  24.1522       213
  24.1717       230
  24.1911       232
  24.2106       246
  24.2300       220
  24.2494       202
  24.2689       234
  24.2883       200
  24.3078       214
  24.3272       231
  24.3466       229
  24.3661       222
  24.3855       239
  24.4050       219
  24.4244       221
  24.4438       236
  24.4633       230
  24.4827       229
  24.5022       229
  24.5216       226
  24.5410       237
  24.5605       225
  24.5799       234
  24.5994       214
  24.6188       232
  24.6382       215
  24.6577       249
  24.6771       222
  24.6966       252
  24.7160       226
  24.7354       265
  24.7549       195
  24.7743       213
  24.7938       242
  24.8132       233
  24.8326       214
  24.8521       216
  24.8715       231
  24.8910       258
  24.9104       209
  24.9298       224
  24.9493       232
  24.9687       235
  24.9882       231
  25.0076       221
  25.0270       224
  25.0465       226
  25.0659       253
  25.0854       265
  25.1048       213
  25.1242       230
  25.1437       225
  25.1631       230
  25.1826       269
  25.2020       236
  25.2214       210
  25.2409       221
  25.2603       232
  25.2798       218
  25.2992       241
  25.3186       235
  25.3381       239
  25.3575       230
  25.3770       241
  25.3964       222
  25.4158       237
  25.4353       237
  25.4547       248
  25.4742       251
  25.4936       227
  25.5130       231
  25.5325       237
  25.5519       207
  25.5714       215
  25.5908       216
  25.6102       247
  25.6297       183
  25.6491       219
  25.6686       223
  25.6880       242
  25.7074       238
  25.7269       221
  25.7463       219
  25.7658       206
  25.7852       230
  25.8046       241
  25.8241       227
  25.8435       261
  25.8630       227
  25.8824       214
  25.9018       219
  25.9213       236
  25.9407       248
  25.9602       218
  25.9796       270
  25.9990       239
  26.0185       218
  26.0379       212
  26.0574       241
  26.0768       225
  26.0962       237
  26.1157       245
  26.1351       255
  26.1546       225
  26.1740       257
  26.1934       246
  26.2129       256
  26.2323       194
  26.2518       232
  26.2712       230
  26.2906       230
  26.3101       256
  26.3295       220
  26.3490       236
  26.3684       236
  26.3878       229
  26.4073       238
  26.4267       267
  26.4462       236
  26.4656       235
  26.4850       257
  26.5045       238
  26.5239       249
  26.5434       214
  26.5628       231
  26.5822       238
  26.6017       213
  26.6211       239
  26.6406       231
  26.6600       208
  26.6794       223
  26.6989       247
  26.7183       245
  26.7378       236
  26.7572       258
  26.7766       233
  26.7961       216
  26.8155       230
  26.8350       216
  26.8544       217
  26.8738       258
  26.8933       230
  26.9127       210
  26.9322       248
  26.9516       234
  26.9710       235
  26.9905       245
  27.0099       230
  27.0294       236
  27.0488       199
  27.0682       222
  27.0877       229
  27.1071       220
  27.1266       262
  27.1460       213
  27.1654       233
  27.1849       245
  27.2043       236
  27.2238       231
  27.2432       229
  27.2626       208
  27.2821       230
  27.3015       228
  27.3210       215
  27.3404       222
  27.3598       234
  27.3793       222
  27.3987       240
  27.4182       223
  27.4376       236
  27.4570       245
  27.4765       229
  27.4959       222
  27.5153       245
  27.5348       232
  27.5542       240
  27.5737       230
  27.5931       236
  27.6125       229
  27.6320       225
  27.6514       216
  27.6709       222
  27.6903       226
  27.7097       210
  27.7292       217
  27.7486       215
  27.7681       230
  27.7875       261
  27.8069       222
  27.8264       241
  27.8458       219
  27.8653       223
  27.8847       259
  27.9041       232
  27.9236       213
  27.9430       245
  27.9625       240
  27.9819       219
  28.0013       239
  28.0208       211
  28.0402       236
  28.0597       231
  28.0791       222
  28.0985       242
  28.1180       253
  28.1374       244
  28.1569       258
  28.1763       235
  28.1957       243
  28.2152       227
  28.2346       228
  28.2541       216
  28.2735       248
  28.2929       231
  28.3124       222
  28.3318       248
  28.3513       207
  28.3707       228
  28.3901       226
  28.4096       243
  28.4290       201
  28.4485       237
  28.4679       219
  28.4873       235
  28.5068       231
  28.5262       231
  28.5457       265
  28.5651       248
  28.5845       240
  28.6040       226
  28.6234       233
  28.6429       264
  28.6623       235
  28.6817       220
  28.7012       220
  28.7206       234
  28.7401       230
  28.7595       220
  28.7789       243
  28.7984       228
  28.8178       207
  28.8373       218
  28.8567       211
  28.8761       216
  28.8956       238
  28.9150       226
  28.9345       226
  28.9539       235
  28.9733       246
  28.9928       219
  29.0122       244
  29.0317       217
  29.0511       220
  29.0705       232
  29.0900       238
  29.1094       230
  29.1289       237
  29.1483       242
  29.1677       214
  29.1872       219
  29.2066       246
  29.2261       228
  29.2455       245
  29.2649       224
  29.2844       231
  29.3038       235
  29.3233       225
  29.3427       228
  29.3621       239
  29.3816       253
  29.4010       203
  29.4205       234
  29.4399       234
  29.4593       243
  29.4788       240
  29.4982       271
  29.5177       255
  29.5371       192
  29.5565       232
  29.5760       264
  29.5954       251
  29.6149       230
  29.6343       228
  29.6537       228
  29.6732       214
  29.6926       245
  29.7121       218
  29.7315       251
  29.7509       227
  29.7704       229
  29.7898       256
  29.8093       251
  29.8287       247
  29.8481       241
  29.8676       229
  29.8870       220
  29.9065       247
  29.9259       230
  29.9453       221
  29.9648       229
  29.9842       241
  30.0037       211
  30.0231       228
  30.0425       228
  30.0620       202
  30.0814       260
  30.1009       209
  30.1203       235
  30.1397       228
  30.1592       241
  30.1786       216
  30.1981       227
  30.2175       233
  30.2369       230
  30.2564       252
  30.2758       238
  30.2953       245
  30.3147       247
  30.3341       236
  30.3536       233
  30.3730       223
  30.3925       239
  30.4119       218
  30.4313       206
  30.4508       205
  30.4702       199
  30.4897       219
  30.5091       253
  30.5285       238
  30.5480       214
  30.5674       210
  30.5869       252
  30.6063       230
  30.6257       236
  30.6452       257
  30.6646       214
  30.6841       250
  30.7035       223
  30.7229       245
  30.7424       229
  30.7618       246
  30.7813       238
  30.8007       226
  30.8201       230
  30.8396       226
  30.8590       234
  30.8785       219
  30.8979       226
  30.9173       242
  30.9368       228
  30.9562       217
  30.9757       237
  30.9951       230
  31.0145       230
  31.0340       225
  31.0534       197
  31.0729       243
  31.0923       263
  31.1117       238
  31.1312       223
  31.1506       228
  31.1701       256
  31.1895       237
  31.2089       247
  31.2284       270
  31.2478       220
  31.2673       211
  31.2867       241
  31.3061       216
  31.3256       256
  31.3450       228
  31.3645       250
  31.3839       257
  31.4033       234
  31.4228       229
  31.4422       232
  31.4616       226
  31.4811       230
  31.5005       246
  31.5200       271
  31.5394       230
  31.5588       222
  31.5783       221
  31.5977       233
  31.6172       202
  31.6366       227
  31.6560       233
  31.6755       221
  31.6949       234
  31.7144       257
  31.7338       236
  31.7532       236
  31.7727       227
  31.7921       274
  31.8116       252
  31.8310       255
  31.8504       244
  31.8699       251
  31.8893       240
  31.9088       256
  31.9282       268
  31.9476       221
  31.9671       243
  31.9865       251
  32.0060       251
  32.0254       242
  32.0448       229
  32.0643       207
  32.0837       262
  32.1032       247
  32.1226       238
  32.1420       285
  32.1615       213
  32.1809       248
  32.2004       233
  32.2198       248
  32.2392       249
  32.2587       225
  32.2781       227
  32.2976       231
  32.3170       230
  32.3364       220
  32.3559       242
  32.3753       231
  32.3948       238
  32.4142       250
  32.4336       238
  32.4531       244
  32.4725       221
  32.4920       242
  32.5114       249
  32.5308       238
  32.5503       257
  32.5697       209
  32.5892       249
  32.6086       238
  32.6280       233
  32.6475       243
  32.6669       244
  32.6864       244
  32.7058       227
  32.7252       216
  32.7447       241
  32.7641       223
  32.7836       236
  32.8030       241
  32.8224       240
  32.8419       238
  32.8613       236
  32.8808       239
  32.9002       244
  32.9196       236
  32.9391       222
  32.9585       235
  32.9780       227
  32.9974       221
  33.0168       237
  33.0363       234
  33.0557       204
  33.0752       252
  33.0946       228
  33.1140       217
  33.1335       250
  33.1529       205
  33.1724       265
  33.1918       249
  33.2112       218
  33.2307       232
  33.2501       267
  33.2696       233
  33.2890       243
  33.3084       210
  33.3279       230
  33.3473       257
  33.3668       242
  33.3862       233
  33.4056       238
  33.4251       236
  33.4445       243
  33.4640       236
  33.4834       221
  33.5028       221
  33.5223       214
  33.5417       239
  33.5612       252
  33.5806       245
  33.6000       206
  33.6195       236
  33.6389       229
  33.6584       238
  33.6778       252
  33.6972       222
  33.7167       240
  33.7361       224
  33.7556       244
  33.7750       239
  33.7944       231
  33.8139       224
  33.8333       235
  33.8528       244
  33.8722       219
  33.8916       229
  33.9111       235
  33.9305       229
  33.9500       229
  33.9694       255
  33.9888       228
  34.0083       228
  34.0277       212
  34.0472       235
  34.0666       211
  34.0860       252
  34.1055       218
  34.1249       273
  34.1444       227
  34.1638       229
  34.1832       253
  34.2027       232
  34.2221       212
  34.2416       224
  34.2610       217
  34.2804       240
  34.2999       219
  34.3193       221
  34.3388       244
  34.3582       237
  34.3776       237
  34.3971       210
  34.4165       233
  34.4360       227
  34.4554       238
  34.4748       250
  34.4943       235
  34.5137       250
  34.5332       218
  34.5526       225
  34.5720       257
  34.5915       255
  34.6109       222
  34.6304       214
  34.6498       222
  34.6692       246
  34.6887       250
  34.7081       250
  34.7276       256
  34.7470       243
  34.7664       239
  34.7859       229
  34.8053       229
  34.8248       236
  34.8442       250
  34.8636       279
  34.8831       250
  34.9025       256
  34.9220       253
  34.9414       249
  34.9608       234
  34.9803       239
  34.9997       214
  35.0192       234
  35.0386       256
  35.0580       227
  35.0775       208
  35.0969       248
  35.1164       222
  35.1358       237
  35.1552       257
  35.1747       244
  35.1941       223
  35.2136       218
  35.2330       240
  35.2524       241
  35.2719       228
  35.2913       216
  35.3107       248
  35.3302       220
  35.3496       240
  35.3691       230
  35.3885       242
  35.4079       216
  35.4274       246
  35.4468       233
  35.4663       223
  35.4857       237
  35.5051       209
  35.5246       214
  35.5440       259
  35.5635       217
  35.5829       236
  35.6023       223
  35.6218       236
  35.6412       249
  35.6607       242
  35.6801       238
  35.6995       229
  35.7190       247
  35.7384       230
  35.7579       201
  35.7773       252
  35.7967       205
  35.8162       265
  35.8356       233
  35.8551       225
  35.8745       254
  35.8939       220
  35.9134       244
  35.9328       224
  35.9523       208
  35.9717       228
  35.9911       244
  36.0106       237
  36.0300       215
  36.0495       238
  36.0689       217
  36.0883       206
  36.1078       239
  36.1272       242
  36.1467       233
  36.1661       242
  36.1855       253
  36.2050       224
  36.2244       218
  36.2439       226
  36.2633       242
  36.2827       260
  36.3022       201
  36.3216       217
  36.3411       248
  36.3605       221
  36.3799       190
  36.3994       235
  36.4188       244
  36.4383       262
  36.4577       236
  36.4771       222
  36.4966       239
  36.5160       229
  36.5355       242
  36.5549       238
  36.5743       208
  36.5938       249
  36.6132       235
  36.6327       224
  36.6521       252
  36.6715       238
  36.6910       240
  36.7104       239
  36.7299       230
  36.7493       253
  36.7687       256
  36.7882       227
  36.8076       213
  36.8271       216
  36.8465       262
  36.8659       257
  36.8854       238
  36.9048       251
  36.9243       262
  36.9437       224
  36.9631       235
  36.9826       221
  37.0020       220
  37.0215       236
  37.0409       228
  37.0603       236
  37.0798       221
  37.0992       240
  37.1187       219
  37.1381       280
  37.1575       222
  37.1770       260
  37.1964       239
  37.2159       222
  37.2353       229
  37.2547       238
  37.2742       231
  37.2936       218
  37.3131       246
  37.3325       242
  37.3519       224
  37.3714       233
  37.3908       243
  37.4103       215
  37.4297       217
  37.4491       230
  37.4686       273
  37.4880       233
  37.5075       232
  37.5269       212
  37.5463       215
  37.5658       216
  37.5852       257
  37.6047       263
  37.6241       256
  37.6435       225
  37.6630       257
  37.6824       252
  37.7019       221
  37.7213       270
  37.7407       227
  37.7602       206
  37.7796       237
  37.7991       213
  37.8185       230
  37.8379       230
  37.8574       240
  37.8768       224
  37.8963       254
  37.9157       226
  37.9351       242
  37.9546       240
  37.9740       238
  37.9935       235
  38.0129       226
  38.0323       205
  38.0518       254
  38.0712       224
  38.0907       256
  38.1101       238
  38.1295       252
  38.1490       255
  38.1684       209
  38.1879       253
  38.2073       218
  38.2267       210
  38.2462       244
  38.2656       227
  38.2851       228
  38.3045       246
  38.3239       231
  38.3434       243
  38.3628       256
  38.3823       235
  38.4017       239
  38.4211       246
  38.4406       214
  38.4600       244
  38.4795       238
  38.4989       242
  38.5183       243
  38.5378       257
  38.5572       221
  38.5767       249
  38.5961       225
  38.6155       220
  38.6350       249
  38.6544       246
  38.6739       244
  38.6933       270
  38.7127       245
  38.7322       227
  38.7516       238
  38.7711       215
  38.7905       234
  38.8099       259
  38.8294       243
  38.8488       234
  38.8683       225
  38.8877       235
  38.9071       238
  38.9266       251
  38.9460       248
  38.9655       239
  38.9849       224
  39.0043       244
  39.0238       252
  39.0432       293
  39.0627       222
  39.0821       234
  39.1015       229
  39.1210       213
  39.1404       241
  39.1598       235
  39.1793       247
  39.1987       200
  39.2182       227
  39.2376       239
  39.2570       235
  39.2765       221
  39.2959       246
  39.3154       247
  39.3348       243
  39.3542       205
  39.3737       230
  39.3931       264
  39.4126       222
  39.4320       221
  39.4514       249
  39.4709       258
  39.4903       262
  39.5098       219
  39.5292       258
  39.5486       235
  39.5681       213
  39.5875       197
  39.6070       223
  39.6264       227
  39.6458       234
  39.6653       244
  39.6847       235
  39.7042       230
  39.7236       225
  39.7430       236
  39.7625       217
  39.7819       280
  39.8014       251
  39.8208       225
  39.8402       248
  39.8597       243
  39.8791       231
  39.8986       251
  39.9180       227
  39.9374       234
  39.9569       243
  39.9763       205
  39.9958       216
  40.0152       230
  40.0346       222
  40.0541       233
  40.0735       241
  40.0930       247
  40.1124       247
  40.1318       242
  40.1513       239
  40.1707       249
  40.1902       236
  40.2096       221
  40.2290       250
  40.2485       254
  40.2679       233
  40.2874       228
  40.3068       241
  40.3262       249
  40.3457       229
  40.3651       277
  40.3846       197
  40.4040       218
  40.4234       262
  40.4429       242
  40.4623       220
  40.4818       231
  40.5012       236
  40.5206       240
  40.5401       230
  40.5595       255
  40.5790       222
  40.5984       264
  40.6178       228
  40.6373       259
  40.6567       250
  40.6762       229
  40.6956       241
  40.7150       238
  40.7345       257
  40.7539       260
  40.7734       225
  40.7928       241
  40.8122       244
  40.8317       216
  40.8511       230
  40.8706       230
  40.8900       238
  40.9094       222
  40.9289       227
  40.9483       232
  40.9678       239
  40.9872       227
  41.0066       223
  41.0261       227
  41.0455       241
  41.0650       235
  41.0844       218
  41.1038       253
  41.1233       227
  41.1427       221
  41.1622       227
  41.1816       229
  41.2010       250
  41.2205       234
  41.2399       248
  41.2594       231
  41.2788       257
  41.2982       234
  41.3177       230
  41.3371       272
  41.3566       270
  41.3760       217
  41.3954       244
  41.4149       253
  41.4343       228
  41.4538       214
  41.4732       261
  41.4926       232
  41.5121       238
  41.5315       241
  41.5510       231
  41.5704       228
  41.5898       223
  41.6093       262
  41.6287       246
  41.6482       253
  41.6676       230
  41.6870       232
  41.7065       255
  41.7259       222
  41.7454       209
  41.7648       226
  41.7842       228
  41.8037       250
  41.8231       235
  41.8426       219
  41.8620       241
  41.8814       240
  41.9009       258
  41.9203       245
  41.9398       263
  41.9592       241
  41.9786       270
  41.9981       248
  42.0175       273
  42.0370       293
  42.0564       260
  42.0758       241
  42.0953       262
  42.1147       239
  42.1342       258
  42.1536       270
  42.1730       225
  42.1925       274
  42.2119       270
  42.2314       271
  42.2508       268
  42.2702       263
  42.2897       300
  42.3091       263
  42.3286       259
  42.3480       262
  42.3674       226
  42.3869       262
  42.4063       276
  42.4258       286
  42.4452       234
  42.4646       261
  42.4841       294
  42.5035       289
  42.5230       297
  42.5424       261
  42.5618       274
  42.5813       268
  42.6007       276
  42.6202       260
  42.6396       290
  42.6590       274
  42.6785       297
  42.6979       266
  42.7174       296
  42.7368       275
  42.7562       245
  42.7757       253
  42.7951       264
  42.8146       278
  42.8340       271
  42.8534       308
  42.8729       261
  42.8923       258
  42.9118       311
  42.9312       289
  42.9506       307
  42.9701       288
  42.9895       281
  43.0090       290
  43.0284       279
  43.0478       338
  43.0673       305
  43.0867       297
  43.1061       303
  43.1256       336
  43.1450       306
  43.1645       301
  43.1839       310
  43.2033       362
  43.2228       343
  43.2422       342
  43.2617       382
  43.2811       386
  43.3005       426
  43.3200       457
  43.3394       447
  43.3589       491
  43.3783       558
  43.3977       595
  43.4172       608
  43.4366       721
  43.4561       799
  43.4755       863
  43.4949      1010
  43.5144      1189
  43.5338      1456
  43.5533      1735
  43.5727      1942
  43.5921      2279
  43.6116      2464
  43.6310      2675
  43.6505      2667
  43.6699      2654
  43.6893      2619
  43.7088      2302
  43.7282      2213
  43.7477      1974
  43.7671      1842
  43.7865      1607
  43.8060      1537
  43.8254      1262
  43.8449      1093
  43.8643       948
  43.8837       833
  43.9032       747
  43.9226       633
  43.9421       611
  43.9615       522
  43.9809       521
  44.0004       425
  44.0198       430
  44.0393       410
  44.0587       402
  44.0781       401
  44.0976       394
  44.1170       352
  44.1365       366
  44.1559       317
  44.1753       327
  44.1948       315
  44.2142       331
  44.2337       297
  44.2531       287
  44.2725       293
  44.2920       330
  44.3114       297
  44.3309       303
  44.3503       269
  44.3697       290
  44.3892       283
  44.4086       269
  44.4281       299
  44.4475       286
  44.4669       279
  44.4864       275
  44.5058       282
  44.5253       261
  44.5447       295
  44.5641       268
  44.5836       258
  44.6030       244
  44.6225       273
  44.6419       261
  44.6613       265
  44.6808       281
  44.7002       240
  44.7197       259
  44.7391       250
  44.7585       290
  44.7780       256
  44.7974       264
  44.8169       275
  44.8363       247
  44.8557       242
  44.8752       230
  44.8946       247
  44.9141       234
  44.9335       269
  44.9529       241
  44.9724       253
  44.9918       256
  45.0113       262
  45.0307       262
  45.0501       231
  45.0696       269
  45.0890       267
  45.1085       251
  45.1279       263
  45.1473       283
  45.1668       245
  45.1862       255
  45.2057       256
  45.2251       222
  45.2445       247
  45.2640       290
  45.2834       250
  45.3029       233
  45.3223       253
  45.3417       258
  45.3612       237
  45.3806       274
  45.4001       240
  45.4195       250
  45.4389       269
  45.4584       242
  45.4778       273
  45.4973       224
  45.5167       269
  45.5361       256
  45.5556       259
  45.5750       267
  45.5945       289
  45.6139       259
  45.6333       245
  45.6528       289
  45.6722       260
  45.6917       272
  45.7111       262
  45.7305       275
  45.7500       245
  45.7694       257
  45.7889       282
  45.8083       258
  45.8277       289
  45.8472       222
  45.8666       282
  45.8861       250
  45.9055       253
  45.9249       248
  45.9444       266
  45.9638       242
  45.9833       261
  46.0027       251
  46.0221       256
  46.0416       252
  46.0610       235
  46.0805       261
  46.0999       246
  46.1193       264
  46.1388       237
  46.1582       266
  46.1777       249
  46.1971       250
  46.2165       244
  46.2360       259
  46.2554       235
  46.2749       260
  46.2943       224
  46.3137       257
  46.3332       244
  46.3526       264
  46.3721       236
  46.3915       257
  46.4109       256
  46.4304       227
  46.4498       245
  46.4693       234
  46.4887       293
  46.5081       251
  46.5276       244
  46.5470       250
  46.5665       267
  46.5859       266
  46.6053       242
  46.6248       233
  46.6442       237
  46.6637       235
  46.6831       228
  46.7025       237
  46.7220       237
  46.7414       253
  46.7609       283
  46.7803       238
  46.7997       270
  46.8192       238
  46.8386       260
  46.8581       279
  46.8775       247
  46.8969       278
  46.9164       231
  46.9358       260
  46.9552       235
  46.9747       226
  46.9941       260
  47.0136       239
  47.0330       252
  47.0524       263
  47.0719       268
  47.0913       221
  47.1108       245
  47.1302       229
  47.1496       267
  47.1691       283
  47.1885       269
  47.2080       239
  47.2274       257
  47.2468       238
  47.2663       267
  47.2857       248
  47.3052       282
  47.3246       229
  47.3440       246
  47.3635       237
  47.3829       262
  47.4024       257
  47.4218       236
  47.4412       228
  47.4607       253
  47.4801       266
  47.4996       255
  47.5190       232
  47.5384       256
  47.5579       235
  47.5773       282
  47.5968       226
  47.6162       248
  47.6356       244
  47.6551       260
  47.6745       282
  47.6940       235
  47.7134       246
  47.7328       222
  47.7523       251
  47.7717       242
  47.7912       245
  47.8106       266
  47.8300       243
  47.8495       284
  47.8689       245
  47.8884       257
  47.9078       245
  47.9272       269
  47.9467       253
  47.9661       231
  47.9856       264
  48.0050       258
  48.0244       257
  48.0439       259
  48.0633       252
  48.0828       266
  48.1022       215
  48.1216       238
  48.1411       256
  48.1605       271
  48.1800       236
  48.1994       254
  48.2188       294
  48.2383       234
  48.2577       278
  48.2772       237
  48.2966       254
  48.3160       263
  48.3355       259
  48.3549       241
  48.3744       256
  48.3938       234
  48.4132       271
  48.4327       259
  48.4521       279
  48.4716       289
  48.4910       275
  48.5104       260
  48.5299       250
  48.5493       244
  48.5688       243
  48.5882       247
  48.6076       236
  48.6271       262
  48.6465       248
  48.6660       265
  48.6854       263
  48.7048       256
  48.7243       258
  48.7437       259
  48.7632       232
  48.7826       244
  48.8020       271
  48.8215       301
  48.8409       265
  48.8604       263
  48.8798       257
  48.8992       245
  48.9187       241
  48.9381       253
  48.9576       275
  48.9770       266
  48.9964       242
  49.0159       245
  49.0353       251
  49.0548       266
  49.0742       255
  49.0936       256
  49.1131       257
  49.1325       256
  49.1520       281
  49.1714       258
  49.1908       266
  49.2103       258
  49.2297       235
  49.2492       254
  49.2686       234
  49.2880       248
  49.3075       281
  49.3269       263
  49.3464       254
  49.3658       280
  49.3852       257
  49.4047       258
  49.4241       277
  49.4436       271
  49.4630       267
  49.4824       254
  49.5019       240
  49.5213       278
  49.5408       256
  49.5602       270
  49.5796       281
  49.5991       298
  49.6185       229
  49.6380       290
  49.6574       270
  49.6768       253
  49.6963       247
  49.7157       237
  49.7352       257
  49.7546       248
  49.7740       250
  49.7935       282
  49.8129       271
  49.8324       281
  49.8518       260
  49.8712       301
  49.8907       260
  49.9101       272
  49.9296       284
  49.9490       325
  49.9684       292
  49.9879       285
  50.0073       288
  50.0268       296
  50.0462       307
  50.0656       285
  50.0851       301
  50.1045       275
  50.1240       296
  50.1434       323
  50.1628       329
  50.1823       304
  50.2017       310
  50.2212       338
  50.2406       344
  50.2600       334
  50.2795       329
  50.2989       315
  50.3184       354
  50.3378       375
  50.3572       378
  50.3767       415
  50.3961       399
  50.4156       454
  50.4350       458
  50.4544       450
  50.4739       506
  50.4933       549
  50.5128       579
  50.5322       672
  50.5516       661
  50.5711       700
  50.5905       754
  50.6100       869
  50.6294       963
  50.6488      1036
  50.6683      1029
  50.6877      1138
  50.7072      1243
  50.7266      1220
  50.7460      1166
  50.7655      1299
  50.7849      1217
  50.8044      1205
  50.8238      1123
  50.8432      1088
  50.8627      1042
  50.8821      1049
  50.9015       927
  50.9210       907
  50.9404       843
  50.9599       719
  50.9793       665
  50.9987       630
  51.0182       588
  51.0376       554
  51.0571       497
  51.0765       521
  51.0959       449
  51.1154       427
  51.1348       416
  51.1543       409
  51.1737       360
  51.1931       386
  51.2126       353
  51.2320       361
  51.2515       331
  51.2709       344
  51.2903       323
  51.3098       331
  51.3292       325
  51.3487       292
  51.3681       296
  51.3875       342
  51.4070       287
  51.4264       298
  51.4459       285
  51.4653       286
  51.4847       286
  51.5042       311
  51.5236       301
  51.5431       286
  51.5625       278
  51.5819       273
  51.6014       256
  51.6208       274
  51.6403       318
  51.6597       254
  51.6791       290
  51.6986       270
  51.7180       243
  51.7375       259
  51.7569       273
  51.7763       293
  51.7958       304
  51.8152       250
  51.8347       239
  51.8541       253
  51.8735       268
  51.8930       291
  51.9124       242
  51.9319       313
  51.9513       251
  51.9707       271
  51.9902       230
  52.0096       264
  52.0291       245
  52.0485       232
  52.0679       267
  52.0874       248
  52.1068       260
  52.1263       283
  52.1457       250
  52.1651       268
  52.1846       250
  52.2040       273
  52.2235       270
  52.2429       250
  52.2623       271
  52.2818       254
  52.3012       265
  52.3207       277
  52.3401       249
  52.3595       253
  52.3790       241
  52.3984       281
  52.4179       264
  52.4373       266
  52.4567       279
  52.4762       259
  52.4956       266
  52.5151       261
  52.5345       261
  52.5539       265
  52.5734       261
  52.5928       268
  52.6123       272
  52.6317       239
  52.6511       244
  52.6706       253
  52.6900       228
  52.7095       258
  52.7289       256
  52.7483       288
  52.7678       246
  52.7872       234
  52.8067       265
  52.8261       227
  52.8455       252
  52.8650       268
  52.8844       239
  52.9039       268
  52.9233       253
  52.9427       216
  52.9622       216
  52.9816       257
  53.0011       261
  53.0205       253
  53.0399       256
  53.0594       259
  53.0788       267
  53.0983       262
  53.1177       219
  53.1371       247
  53.1566       258
  53.1760       270
  53.1955       268
  53.2149       263
  53.2343       265
  53.2538       255
  53.2732       233
  53.2927       258
  53.3121       253
  53.3315       228
  53.3510       239
  53.3704       257
  53.3899       268
  53.4093       224
  53.4287       278
  53.4482       263
  53.4676       242
  53.4871       250
  53.5065       246
  53.5259       247
  53.5454       261
  53.5648       250
  53.5843       256
  53.6037       256
  53.6231       263
  53.6426       248
  53.6620       269
  53.6815       241
  53.7009       262
  53.7203       260
  53.7398       237
  53.7592       227
  53.7787       264
  53.7981       219
  53.8175       269
  53.8370       246
  53.8564       227
  53.8759       245
  53.8953       210
  53.9147       257
  53.9342       240
  53.9536       227
  53.9731       237
  53.9925       275
  54.0119       245
  54.0314       247
  54.0508       216
  54.0703       246
  54.0897       274
  54.1091       291
  54.1286       232
  54.1480       262
  54.1675       246
  54.1869       269
  54.2063       278
  54.2258       252
  54.2452       272
  54.2647       265
  54.2841       237
  54.3035       243
  54.3230       253
  54.3424       259
  54.3619       257
  54.3813       260
  54.4007       232
  54.4202       284
  54.4396       245
  54.4591       266
  54.4785       266
  54.4979       250
  54.5174       255
  54.5368       276
  54.5563       235
  54.5757       237
  54.5951       276
  54.6146       277
  54.6340       246
  54.6535       261
  54.6729       249
  54.6923       252
  54.7118       270
  54.7312       245
  54.7506       233
  54.7701       250
  54.7895       237
  54.8090       254
  54.8284       239
  54.8478       235
  54.8673       253
  54.8867       244
  54.9062       242
  54.9256       233
  54.9450       232
  54.9645       257
  54.9839       251
  55.0034       262
  55.0228       259
  55.0422       262
  55.0617       248
  55.0811       238
  55.1006       234
  55.1200       243
  55.1394       239
  55.1589       244
  55.1783       256
  55.1978       240
  55.2172       236
  55.2366       255
  55.2561       255
  55.2755       254
  55.2950       264
  55.3144       250
  55.3338       250
  55.3533       255
  55.3727       286
  55.3922       255
  55.4116       243
  55.4310       233
  55.4505       236
  55.4699       240
  55.4894       249
  55.5088       233
  55.5282       233
  55.5477       254
  55.5671       257
  55.5866       252
  55.6060       248
  55.6254       257
  55.6449       275
  55.6643       261
  55.6838       277
  55.7032       230
  55.7226       249
  55.7421       254
  55.7615       243
  55.7810       253
  55.8004       254
  55.8198       281
  55.8393       227
  55.8587       263
  55.8782       275
  55.8976       261
  55.9170       247
  55.9365       249
  55.9559       251
  55.9754       246
  55.9948       249
  56.0142       233
  56.0337       249
  56.0531       242
  56.0726       245
  56.0920       246
  56.1114       254
  56.1309       261
  56.1503       250
  56.1698       258
  56.1892       243
  56.2086       248
  56.2281       248
  56.2475       269
  56.2670       271
  56.2864       267
  56.3058       225
  56.3253       255
  56.3447       240
  56.3642       241
  56.3836       239
  56.4030       255
  56.4225       235
  56.4419       226
  56.4614       278
  56.4808       280
  56.5002       234
  56.5197       268
  56.5391       241
  56.5586       255
  56.5780       249
  56.5974       284
  56.6169       235
  56.6363       269
  56.6558       281
  56.6752       241
  56.6946       250
  56.7141       223
  56.7335       273
  56.7530       262
  56.7724       234
  56.7918       219
  56.8113       254
  56.8307       228
  56.8502       261
  56.8696       257
  56.8890       254
  56.9085       252
  56.9279       236
  56.9474       259
  56.9668       262
  56.9862       273
  57.0057       259
  57.0251       243
  57.0446       240
  57.0640       268
  57.0834       281
  57.1029       258
  57.1223       252
  57.1418       243
  57.1612       275
  57.1806       275
  57.2001       269
  57.2195       256
  57.2390       219
  57.2584       242
  57.2778       265
  57.2973       262
  57.3167       256
  57.3362       253
  57.3556       253
  57.3750       239
  57.3945       256
  57.4139       256
  57.4334       250
  57.4528       234
  57.4722       238
  57.4917       237
  57.5111       252
  57.5306       236
  57.5500       250
  57.5694       255
  57.5889       246
  57.6083       260
  57.6278       228
  57.6472       265
  57.6666       237
  57.6861       221
  57.7055       250
  57.7250       260
  57.7444       252
  57.7638       261
  57.7833       246
  57.8027       256
  57.8222       233
  57.8416       259
  57.8610       252
  57.8805       241
  57.8999       277
  57.9194       263
  57.9388       267
  57.9582       268
  57.9777       239
  57.9971       247
  58.0166       269
  58.0360       224
  58.0554       242
  58.0749       233
  58.0943       228
  58.1138       248
  58.1332       252
  58.1526       278
  58.1721       254
  58.1915       224
  58.2110       231
  58.2304       224
  58.2498       235
  58.2693       260
  58.2887       248
  58.3082       236
  58.3276       260
  58.3470       229
  58.3665       267
  58.3859       232
  58.4054       247
  58.4248       242
  58.4442       256
  58.4637       275
  58.4831       241
  58.5026       262
  58.5220       232
  58.5414       263
  58.5609       253
  58.5803       252
  58.5998       236
  58.6192       253
  58.6386       240
  58.6581       259
  58.6775       229
  58.6969       266
  58.7164       254
  58.7358       254
  58.7553       263
  58.7747       235
  58.7941       263
  58.8136       240
  58.8330       227
  58.8525       265
  58.8719       259
  58.8913       245
  58.9108       244
  58.9302       247
  58.9497       254
  58.9691       260
  58.9885       247
  59.0080       262
  59.0274       246
  59.0469       229
  59.0663       271
  59.0857       251
  59.1052       263
  59.1246       284
  59.1441       240
  59.1635       233
  59.1829       263
  59.2024       248
  59.2218       258
  59.2413       249
  59.2607       252
  59.2801       251
  59.2996       217
  59.3190       236
  59.3385       265
  59.3579       270
  59.3773       273
  59.3968       267
  59.4162       222
  59.4357       251
  59.4551       286
  59.4745       271
  59.4940       236
  59.5134       248
  59.5329       232
  59.5523       231
  59.5717       234
  59.5912       254
  59.6106       283
  59.6301       257
  59.6495       255
  59.6689       266
  59.6884       251
  59.7078       266
  59.7273       252
  59.7467       250
  59.7661       258
  59.7856       250
  59.8050       273
  59.8245       244
  59.8439       284
  59.8633       242
  59.8828       248
  59.9022       249
  59.9217       278
  59.9411       261
  59.9605       280
  59.9800       251
  59.9994       288
  60.0189       262
  60.0383       251
  60.0577       296
  60.0772       252
  60.0966       237
  60.1161       241
  60.1355       241
  60.1549       232
  60.1744       247
  60.1938       263
  60.2133       228
  60.2327       258
  60.2521       243
  60.2716       251
  60.2910       247
  60.3105       256
  60.3299       249
  60.3493       250
  60.3688       255
  60.3882       247
  60.4077       258
  60.4271       266
  60.4465       245
  60.4660       256
  60.4854       249
  60.5049       248
  60.5243       250
  60.5437       269
  60.5632       247
  60.5826       249
  60.6021       248
  60.6215       260
  60.6409       288
  60.6604       258
  60.6798       232
  60.6993       262
  60.7187       260
  60.7381       255
  60.7576       266
  60.7770       217
  60.7965       234
  60.8159       251
  60.8353       273
  60.8548       248
  60.8742       233
  60.8937       246
  60.9131       259
  60.9325       251
  60.9520       291
  60.9714       266
  60.9909       237
  61.0103       260
  61.0297       244
  61.0492       290
  61.0686       233
  61.0881       253
  61.1075       274
  61.1269       246
  61.1464       268
  61.1658       255
  61.1853       234
  61.2047       247
  61.2241       250
  61.2436       270
  61.2630       255
  61.2825       257
  61.3019       272
  61.3213       253
  61.3408       249
  61.3602       279
  61.3797       260
  61.3991       215
  61.4185       267
  61.4380       237
  61.4574       241
  61.4769       263
  61.4963       246
  61.5157       245
  61.5352       267
  61.5546       258
  61.5741       248
  61.5935       233
  61.6129       234
  61.6324       263
  61.6518       256
  61.6713       269
  61.6907       255
  61.7101       245
  61.7296       269
  61.7490       242
  61.7685       242
  61.7879       260
  61.8073       270
  61.8268       243
  61.8462       280
  61.8657       257
  61.8851       255
  61.9045       257
  61.9240       260
  61.9434       268
  61.9629       243
  61.9823       277
  62.0017       285
  62.0212       257
  62.0406       243
  62.0601       245
  62.0795       235
  62.0989       256
  62.1184       292
  62.1378       236
  62.1573       241
  62.1767       240
  62.1961       265
  62.2156       248
  62.2350       235
  62.2545       251
  62.2739       269
  62.2933       276
  62.3128       259
  62.3322       245
  62.3517       253
  62.3711       275
  62.3905       278
  62.4100       283
  62.4294       272
  62.4489       268
  62.4683       236
  62.4877       281
  62.5072       259
  62.5266       223
  62.5460       295
  62.5655       241
  62.5849       237
  62.6044       284
  62.6238       242
  62.6432       261
  62.6627       222
  62.6821       228
  62.7016       287
  62.7210       262
  62.7404       254
  62.7599       271
  62.7793       275
  62.7988       250
  62.8182       272
  62.8376       250
  62.8571       233
  62.8765       272
  62.8960       247
  62.9154       277
  62.9348       307
  62.9543       249
  62.9737       242
  62.9932       242
  63.0126       250
  63.0320       279
  63.0515       256
  63.0709       282
  63.0904       257
  63.1098       242
  63.1292       243
  63.1487       244
  63.1681       238
  63.1876       243
  63.2070       251
  63.2264       261
  63.2459       252
  63.2653       250
  63.2848       262
  63.3042       258
  63.3236       260
  63.3431       260
  63.3625       260
  63.3820       238
  63.4014       257
  63.4208       221
  63.4403       276
  63.4597       231
  63.4792       267
  63.4986       249
  63.5180       277
  63.5375       262
  63.5569       272
  63.5764       257
  63.5958       252
  63.6152       235
  63.6347       245
  63.6541       244
  63.6736       238
  63.6930       260
  63.7124       224
  63.7319       254
  63.7513       237
  63.7708       256
  63.7902       247
  63.8096       236
  63.8291       256
  63.8485       238
  63.8680       260
  63.8874       270
  63.9068       243
  63.9263       231
  63.9457       234
  63.9652       257
  63.9846       223
  64.0040       266
  64.0235       247
  64.0429       241
  64.0624       266
  64.0818       268
  64.1012       261
  64.1207       214
  64.1401       239
  64.1596       241
  64.1790       263
  64.1984       243
  64.2179       252
  64.2373       250
  64.2568       249
  64.2762       237
  64.2956       247
  64.3151       244
  64.3345       231
  64.3540       263
  64.3734       261
  64.3928       244
  64.4123       228
  64.4317       255
  64.4512       270
  64.4706       258
  64.4900       256
  64.5095       239
  64.5289       238
  64.5484       261
  64.5678       265
  64.5872       273
  64.6067       256
  64.6261       244
  64.6456       261
  64.6650       232
  64.6844       255
  64.7039       267
  64.7233       250
  64.7428       269
  64.7622       260
  64.7816       270
  64.8011       284
  64.8205       242
  64.8400       242
  64.8594       264
  64.8788       242
  64.8983       246
  64.9177       247
  64.9372       243
  64.9566       223
  64.9760       231
  64.9955       271
  65.0149       235
  65.0344       261
  65.0538       248
  65.0732       274
  65.0927       241
  65.1121       234
  65.1316       251
  65.1510       267
  65.1704       227
  65.1899       254
  65.2093       278
  65.2288       238
  65.2482       238
  65.2676       263
  65.2871       293
  65.3065       271
  65.3260       237
  65.3454       279
  65.3648       268
  65.3843       248
  65.4037       249
  65.4232       222
  65.4426       258
  65.4620       247
  65.4815       275
  65.5009       287
  65.5204       228
  65.5398       258
  65.5592       225
  65.5787       240
  65.5981       264
  65.6176       265
  65.6370       262
  65.6564       259
  65.6759       252
  65.6953       257
  65.7148       251
  65.7342       257
  65.7536       256
  65.7731       245
  65.7925       277
  65.8120       269
  65.8314       288
  65.8508       263
  65.8703       258
  65.8897       236
  65.9092       244
  65.9286       277
  65.9480       255
  65.9675       252
  65.9869       271
  66.0064       251
  66.0258       274
  66.0452       254
  66.0647       267
  66.0841       287
  66.1036       289
  66.1230       253
  66.1424       247
  66.1619       274
  66.1813       268
  66.2008       256
  66.2202       237
  66.2396       249
  66.2591       257
  66.2785       261
  66.2980       273
  66.3174       276
  66.3368       251
  66.3563       278
  66.3757       251
  66.3951       274
  66.4146       258
  66.4340       255
  66.4535       247
  66.4729       289
  66.4923       240
  66.5118       245
  66.5312       271
  66.5507       260
  66.5701       272
  66.5895       250
  66.6090       300
  66.6284       255
  66.6479       272
  66.6673       299
  66.6867       274
  66.7062       242
  66.7256       252
  66.7451       280
  66.7645       270
  66.7839       262
  66.8034       236
  66.8228       272
  66.8423       248
  66.8617       254
  66.8811       245
  66.9006       230
  66.9200       281
  66.9395       224
  66.9589       281
  66.9783       247
  66.9978       271
  67.0172       261
  67.0367       237
  67.0561       265
  67.0755       264
  67.0950       233
  67.1144       247
  67.1339       219
  67.1533       245
  67.1727       248
  67.1922       241
  67.2116       246
  67.2311       240
  67.2505       244
  67.2699       264
  67.2894       261
  67.3088       246
  67.3283       258
  67.3477       254
  67.3671       232
  67.3866       251
  67.4060       267
  67.4255       270
  67.4449       223
  67.4643       270
  67.4838       254
  67.5032       273
  67.5227       246
  67.5421       240
  67.5615       248
  67.5810       256
  67.6004       278
  67.6199       222
  67.6393       246
  67.6587       232
  67.6782       247
  67.6976       245
  67.7171       241
  67.7365       245
  67.7559       241
  67.7754       268
  67.7948       235
  67.8143       247
  67.8337       243
  67.8531       260
  67.8726       274
  67.8920       233
  67.9115       268
  67.9309       271
  67.9503       246
  67.9698       258
  67.9892       251
  68.0087       255
  68.0281       257
  68.0475       245
  68.0670       286
  68.0864       250
  68.1059       268
  68.1253       256
  68.1447       213
  68.1642       257
  68.1836       248
  68.2031       265
  68.2225       296
  68.2419       270
  68.2614       255
  68.2808       217
  68.3003       264
  68.3197       271
  68.3391       231
  68.3586       255
  68.3780       261
  68.3975       248
  68.4169       243
  68.4363       270
  68.4558       265
  68.4752       260
  68.4947       269
  68.5141       241
  68.5335       300
  68.5530       253
  68.5724       258
  68.5919       266
  68.6113       253
  68.6307       276
  68.6502       264
  68.6696       258
  68.6891       251
  68.7085       252
  68.7279       242
  68.7474       255
  68.7668       264
  68.7863       258
  68.8057       248
  68.8251       279
  68.8446       267
  68.8640       278
  68.8835       282
  68.9029       259
  68.9223       248
  68.9418       250
  68.9612       255
  68.9807       267
  69.0001       257
  69.0195       230
  69.0390       282
  69.0584       236
  69.0779       237
  69.0973       247
  69.1167       265
  69.1362       257
  69.1556       277
  69.1751       263
  69.1945       300
  69.2139       261
  69.2334       247
  69.2528       257
  69.2723       272
  69.2917       283
  69.3111       239
  69.3306       245
  69.3500       276
  69.3695       233
  69.3889       286
  69.4083       243
  69.4278       251
  69.4472       257
  69.4667       265
  69.4861       252
  69.5055       256
  69.5250       259
  69.5444       297
  69.5639       259
  69.5833       260
  69.6027       245
  69.6222       237
  69.6416       262
  69.6611       236
  69.6805       265
  69.6999       272
  69.7194       274
  69.7388       264
  69.7583       237
  69.7777       253
  69.7971       270
  69.8166       222
  69.8360       290
  69.8555       234
  69.8749       259
  69.8943       251
  69.9138       237
  69.9332       254
  69.9527       239
  69.9721       258
  69.9915       251
  70.0110       267
  70.0304       250
  70.0499       260
  70.0693       221
  70.0887       248
  70.1082       275
  70.1276       253
  70.1471       257
  70.1665       228
  70.1859       230
  70.2054       223
  70.2248       255
  70.2443       253
  70.2637       228
  70.2831       254
  70.3026       249
  70.3220       277
  70.3414       271
  70.3609       278
  70.3803       234
  70.3998       250
  70.4192       250
  70.4386       291
  70.4581       245
  70.4775       250
  70.4970       274
  70.5164       260
  70.5358       278
  70.5553       261
  70.5747       268
  70.5942       271
  70.6136       233
  70.6330       242
  70.6525       227
  70.6719       270
  70.6914       253
  70.7108       240
  70.7302       267
  70.7497       272
  70.7691       255
  70.7886       280
  70.8080       247
  70.8274       260
  70.8469       251
  70.8663       263
  70.8858       280
  70.9052       252
  70.9246       236
  70.9441       235
  70.9635       243
  70.9830       260
  71.0024       285
  71.0218       245
  71.0413       304
  71.0607       249
  71.0802       252
  71.0996       219
  71.1190       278
  71.1385       250
  71.1579       252
  71.1774       252
  71.1968       265
  71.2162       273
  71.2357       240
  71.2551       265
  71.2746       233
  71.2940       279
  71.3134       248
  71.3329       248
  71.3523       250
  71.3718       245
  71.3912       260
  71.4106       261
  71.4301       263
  71.4495       267
  71.4690       232
  71.4884       280
  71.5078       260
  71.5273       270
  71.5467       287
  71.5662       275
  71.5856       300
  71.6050       259
  71.6245       251
  71.6439       282
  71.6634       275
  71.6828       276
  71.7022       253
  71.7217       290
  71.7411       244
  71.7606       251
  71.7800       280
  71.7994       289
  71.8189       276
  71.8383       228
  71.8578       254
  71.8772       265
  71.8966       245
  71.9161       258
  71.9355       236
  71.9550       261
  71.9744       281
  71.9938       250
  72.0133       242
  72.0327       273
  72.0522       270
  72.0716       249
  72.0910       284
  72.1105       232
  72.1299       265
  72.1494       271
  72.1688       242
  72.1882       262
  72.2077       262
  72.2271       282
  72.2466       287
  72.2660       280
  72.2854       259
  72.3049       283
  72.3243       268
  72.3438       245
  72.3632       270
  72.3826       255
  72.4021       275
  72.4215       281
  72.4410       261
  72.4604       288
  72.4798       262
  72.4993       254
  72.5187       277
  72.5382       268
  72.5576       268
  72.5770       280
  72.5965       253
  72.6159       246
  72.6354       281
  72.6548       265
  72.6742       292
  72.6937       261
  72.7131       259
  72.7326       263
  72.7520       275
  72.7714       283
  72.7909       267
  72.8103       270
  72.8298       322
  72.8492       257
  72.8686       317
  72.8881       269
  72.9075       301
  72.9270       251
  72.9464       270
  72.9658       263
  72.9853       256
  73.0047       254
  73.0242       273
  73.0436       249
  73.0630       274
  73.0825       254
  73.1019       248
  73.1214       253
  73.1408       246
  73.1602       260
  73.1797       270
  73.1991       282
  73.2186       260
  73.2380       277
  73.2574       298
  73.2769       276
  73.2963       259
  73.3158       266
  73.3352       312
  73.3546       267
  73.3741       280
  73.3935       275
  73.4130       300
  73.4324       300
  73.4518       259
  73.4713       295
  73.4907       313
  73.5102       297
  73.5296       312
  73.5490       270
  73.5685       290
  73.5879       312
  73.6074       280
  73.6268       274
  73.6462       280
  73.6657       308
  73.6851       313
  73.7046       290
  73.7240       331
  73.7434       322
  73.7629       317
  73.7823       320
  73.8018       340
  73.8212       320
  73.8406       334
  73.8601       331
  73.8795       331
  73.8990       323
  73.9184       330
  73.9378       368
  73.9573       404
  73.9767       360
  73.9962       378
  74.0156       423
  74.0350       432
  74.0545       398
  74.0739       453
  74.0934       509
  74.1128       498
  74.1322       507
  74.1517       587
  74.1711       635
  74.1905       642
  74.2100       756
  74.2294       801
  74.2489       911
  74.2683       984
  74.2877      1060
  74.3072      1127
  74.3266      1248
  74.3461      1338
  74.3655      1452
  74.3849      1463
  74.4044      1534
  74.4238      1519
  74.4433      1459
  74.4627      1388
  74.4821      1413
  74.5016      1361
  74.5210      1326
  74.5405      1285
  74.5599      1203
  74.5793      1261
  74.5988      1189
  74.6182      1105
  74.6377      1102
  74.6571      1042
  74.6765       952
  74.6960       868
  74.7154       790
  74.7349       777
  74.7543       709
  74.7737       678
  74.7932       606
  74.8126       598
  74.8321       497
  74.8515       484
  74.8709       492
  74.8904       414
  74.9098       423
  74.9293       409
  74.9487       405
  74.9681       366
  74.9876       377
  75.0070       354
  75.0265       368
  75.0459       334
  75.0653       310
  75.0848       340
  75.1042       331
  75.1237       297
  75.1431       302
  75.1625       319
  75.1820       328
  75.2014       318
  75.2209       328
  75.2403       265
  75.2597       289
  75.2792       336
  75.2986       274
  75.3181       309
  75.3375       292
  75.3569       305
  75.3764       292
  75.3958       306
  75.4153       275
  75.4347       264
  75.4541       285
  75.4736       271
  75.4930       272
  75.5125       295
  75.5319       290
  75.5513       283
  75.5708       301
  75.5902       260
  75.6097       287
  75.6291       281
  75.6485       288
  75.6680       276
  75.6874       289
  75.7069       274
  75.7263       269
  75.7457       281
  75.7652       276
  75.7846       259
  75.8041       284
  75.8235       259
  75.8429       234
  75.8624       275
  75.8818       264
  75.9013       264
  75.9207       246
  75.9401       272
  75.9596       309
  75.9790       312
  75.9985       269
  76.0179       273
  76.0373       268
  76.0568       249
  76.0762       286
  76.0957       279
  76.1151       268
  76.1345       277
  76.1540       243
  76.1734       269
  76.1929       272
  76.2123       280
  76.2317       248
  76.2512       291
  76.2706       253
  76.2901       275
  76.3095       259
  76.3289       256
  76.3484       268
  76.3678       269
  76.3873       249
  76.4067       287
  76.4261       266
  76.4456       278
  76.4650       272
  76.4845       273
  76.5039       276
  76.5233       264
  76.5428       267
  76.5622       288
  76.5817       279
  76.6011       267
  76.6205       282
  76.6400       303
  76.6594       292
  76.6789       250
  76.6983       259
  76.7177       220
  76.7372       242
  76.7566       261
  76.7761       275
  76.7955       270
  76.8149       281
  76.8344       280
  76.8538       265
  76.8733       261
  76.8927       272
  76.9121       279
  76.9316       313
  76.9510       263
  76.9705       282
  76.9899       283
  77.0093       257
  77.0288       289
  77.0482       289
  77.0677       262
  77.0871       276
  77.1065       262
  77.1260       261
  77.1454       270
  77.1649       264
  77.1843       242
  77.2037       267
  77.2232       252
  77.2426       289
  77.2621       273
  77.2815       293
  77.3009       280
  77.3204       271
  77.3398       267
  77.3593       267
  77.3787       280
  77.3981       258
  77.4176       244
  77.4370       244
  77.4565       266
  77.4759       266
  77.4953       263
  77.5148       264
  77.5342       274
  77.5537       266
  77.5731       286
  77.5925       263
  77.6120       255
  77.6314       232
  77.6509       265
  77.6703       254
  77.6897       264
  77.7092       250
  77.7286       259
  77.7481       254
  77.7675       248
  77.7869       270
  77.8064       267
  77.8258       299
  77.8453       244
  77.8647       270
  77.8841       281
  77.9036       268
  77.9230       263
  77.9425       258
  77.9619       253
  77.9813       247
  78.0008       264
  78.0202       279
  78.0396       272
  78.0591       266
  78.0785       286
  78.0980       275
  78.1174       277
  78.1368       262
  78.1563       270
  78.1757       230
  78.1952       276
  78.2146       273
  78.2340       236
  78.2535       244
  78.2729       262
  78.2924       274
  78.3118       287
  78.3312       265
  78.3507       288
  78.3701       244
  78.3896       256
  78.4090       277
  78.4284       264
  78.4479       285
  78.4673       259
  78.4868       266
  78.5062       244
  78.5256       273
  78.5451       257
  78.5645       261
  78.5840       270
  78.6034       252
  78.6228       276
  78.6423       261
  78.6617       277
  78.6812       268
  78.7006       258
  78.7200       263
  78.7395       277
  78.7589       249
  78.7784       300
  78.7978       253
  78.8172       295
  78.8367       271
  78.8561       243
  78.8756       278
  78.8950       258
  78.9144       289
  78.9339       262
  78.9533       271
  78.9728       281
  78.9922       269
  79.0116       310
  79.0311       265
  79.0505       258
  79.0700       242
  79.0894       253
  79.1088       219
  79.1283       272
  79.1477       257
  79.1672       274
  79.1866       268
  79.2060       248
  79.2255       280
  79.2449       267
  79.2644       228
  79.2838       283
  79.3032       258
  79.3227       272
  79.3421       302
  79.3616       261
  79.3810       265
  79.4004       268
  79.4199       283
  79.4393       270
  79.4588       264
  79.4782       264
  79.4976       280
  79.5171       246
  79.5365       254
  79.5560       231
  79.5754       271
  79.5948       249
  79.6143       259
  79.6337       263
  79.6532       254
  79.6726       245
  79.6920       253
  79.7115       295
  79.7309       311
  79.7504       274
  79.7698       285
  79.7892       266
  79.8087       249
  79.8281       289
  79.8476       256
  79.8670       293
  79.8864       252
  79.9059       250
  79.9253       252
  79.9448       274
  79.9642       290
  79.9836       257
  80.0031       251
