  10.0000        90
  10.0194        91
  10.0389        90
  10.0583        94
  10.0778        88
  10.0972        90
  10.1166        81
  10.1361        95
  10.1555        78
  10.1750        83
  10.1944        85
  10.2138        75
  10.2333       108
  10.2527        89
  10.2722        79
  10.2916        72
  10.3110        77
  10.3305        72
  10.3499        87
  10.3694        65
  10.3888        83
  10.4082        83
  10.4277        77
  10.4471        93
  10.4666        89
  10.4860        84
  10.5054       100
  10.5249       101
  10.5443        94
  10.5638        98
  10.5832        97
  10.6026        95
  10.6221        79
  10.6415        73
  10.6610        97
  10.6804       113
  10.6998       106
  10.7193        92
  10.7387        98
  10.7582       100
  10.7776        87
  10.7970        94
  10.8165        98
  10.8359        92
  10.8554        82
  10.8748        82
  10.8942        72
  10.9137        69
  10.9331        92
  10.9526        66
  10.9720        91
  10.9914        81
  11.0109        83
  11.0303        71
  11.0498       112
  11.0692       104
  11.0886        85
  11.1081        89
  11.1275        79
  11.1470        87
  11.1664        96
  11.1858        67
  11.2053        82
  11.2247       105
  11.2442        95
  11.2636        93
  11.2830       109
  11.3025       101
  11.3219       102
  11.3414        96
  11.3608       112
  11.3802       112
  11.3997        80
  11.4191        93
  11.4386        81
  11.4580        91
  11.4774        83
  11.4969        98
  11.5163        97
  11.5358        88
  11.5552        95
  11.5746        76
  11.5941       101
  11.6135        92
  11.6330        80
  11.6524       104
  11.6718        79
  11.6913        91
  11.7107        92
  11.7302        95
  11.7496       103
  11.7690        97
  11.7885        95
  11.8079        89
  11.8274        81
  11.8468        94
  11.8662        96
  11.8857       103
  11.9051        94
  11.9246       109
  11.9440       109
  11.9634        78
  11.9829       107
  12.0023       107
  12.0217       101
  12.0412        87
  12.0606        99
  12.0801        97
  12.0995       108
  12.1189        85
  12.1384       101
  12.1578       118
  12.1773        87
  12.1967        90
  12.2161       102
  12.2356       115
  12.2550        97
  12.2745        95
  12.2939       107
  12.3133        99
  12.3328       110
  12.3522        99
  12.3717       100
  12.3911       103
  12.4105        87
  12.4300       107
  12.4494        98
  12.4689        91
  12.4883       123
  12.5077       110
  12.5272       105
  12.5466        96
  12.5661       117
  12.5855       111
  12.6049       111
  12.6244        84
  12.6438        99
  12.6633       101
  12.6827       106
  12.7021       115
  12.7216        88
  12.7410        99
  12.7605        97
  12.7799        98
  12.7993        99
  12.8188       103
  12.8382       115
  12.8577       104
  12.8771        93
  12.8965       114
  12.9160        93
  12.9354        83
  12.9549       105
  12.9743       102
  12.9937       103
  13.0132       109
  13.0326       102
  13.0521        94
  13.0715        90
  13.0909        93
  13.1104        97
  13.1298        98
  13.1493       103
  13.1687       103
  13.1881       112
  13.2076       102
  13.2270       116
  13.2465        96
  13.2659       101
  13.2853       110
  13.3048        88
  13.3242       112
  13.3437       116
  13.3631       112
  13.3825       107
  13.4020       101
  13.4214        98
  13.4409       118
  13.4603       116
  13.4797        83
  13.4992        85
  13.5186       108
  13.5381       120
  13.5575        98
  13.5769       107
  13.5964       101
  13.6158       111
  13.6353       112
  13.6547       133
  13.6741       103
  13.6936       102
  13.7130       111
  13.7325        99
  13.7519       103
  13.7713        90
  13.7908       105
  13.8102       111
  13.8297        99
  13.8491       102
  13.8685       103
  13.8880       100
  13.9074        90
  13.9269       109
  13.9463        99
  13.9657       114
  13.9852       101
  14.0046       117
  14.0241       120
  14.0435        95
  14.0629       107
  14.0824        98
  14.1018       121
  14.1213       101
  14.1407        94
  14.1601       113
  14.1796       118
  14.1990       107
  14.2185       102
  14.2379       118
  14.2573       118
  14.2768       105
  14.2962       120
  14.3157        95
  14.3351        99
  14.3545       121
  14.3740       124
  14.3934        99
  14.4129        97
  14.4323       113
  14.4517        96
  14.4712       121
  14.4906        90
  14.5101       107
  14.5295       110
  14.5489       114
  14.5684        98
  14.5878       101
  14.6073       107
  14.6267       110
  14.6461       103
  14.6656       107
  14.6850       124
  14.7045       109
  14.7239       100
  14.7433        90
  14.7628       111
  14.7822       109
  14.8017        95
  14.8211       113
  14.8405       102
  14.8600       100
  14.8794       118
  14.8989       108
  14.9183       116
  14.9377        93
  14.9572       102
  14.9766       106
  14.9961       120
  15.0155       110
  15.0349       107
  15.0544        95
  15.0738       117
  15.0933       112
  15.1127       104
  15.1321       109
  15.1516        92
  15.1710       118
  15.1905       114
  15.2099       102
  15.2293       123
  15.2488       126
  15.2682       107
  15.2877       124
  15.3071       116
  15.3265       118
  15.3460       100
  15.3654       121
  15.3849       110
  15.4043       106
  15.4237       121
  15.4432       107
  15.4626       121
  15.4821       105
  15.5015        99
  15.5209       117
  15.5404       117
  15.5598       113
  15.5793        88
  15.5987       107
  15.6181        99
  15.6376       135
  15.6570        89
  15.6765       117
  15.6959       119
  15.7153       120
  15.7348       114
  15.7542       106
  15.7737       124
  15.7931       122
  15.8125       117
  15.8320       119
  15.8514       126
  15.8708       132
  15.8903       109
  15.9097       120
  15.9292       121
  15.9486       104
  15.9680       116
  15.9875       100
  16.0069       123
  16.0264       119
  16.0458       106
  16.0652       135
  16.0847       105
  16.1041       127
  16.1236       103
  16.1430       114
  16.1624       112
  16.1819       107
  16.2013       126
  16.2208       122
  16.2402       110
  16.2596       108
  16.2791       111
  16.2985       110
  16.3180       131
  16.3374       145
  16.3568       110
  16.3763       108
  16.3957       136
  16.4152       133
  16.4346       138
  16.4540       147
  16.4735       116
  16.4929       137
  16.5124       131
  16.5318       121
  16.5512       114
  16.5707        98
  16.5901       115
  16.6096       123
  16.6290       106
  16.6484       126
  16.6679       121
  16.6873       126
  16.7068       119
  16.7262       125
  16.7456       125
  16.7651       128
  16.7845        98
  16.8040       117
  16.8234       131
  16.8428       117
  16.8623       128
  16.8817       117
  16.9012       124
  16.9206       137
  16.9400       122
  16.9595       121
  16.9789       126
  16.9984       134
  17.0178       108
  17.0372       116
  17.0567       134
  17.0761       110
  17.0956       129
  17.1150       124
  17.1344       118
  17.1539       150
  17.1733       113
  17.1928       118
  17.2122       128
  17.2316       128
  17.2511       128
  17.2705       151
  17.2900       125
  17.3094       133
  17.3288       127
  17.3483       132
  17.3677       124
  17.3872       118
  17.4066       135
  17.4260       130
  17.4455       124
  17.4649       104
  17.4844       125
  17.5038       111
  17.5232       107
  17.5427       117
  17.5621       149
  17.5816       131
  17.6010       127
  17.6204       136
  17.6399       145
  17.6593       126
  17.6788       128
  17.6982       116
  17.7176       143
  17.7371       132
  17.7565       129
  17.7760        93
  17.7954       123
  17.8148       124
  17.8343       130
  17.8537       128
  17.8732       130
  17.8926       138
  17.9120       125
  17.9315       104
  17.9509       133
  17.9704       128
  17.9898       140
  18.0092       137
  18.0287       133
  18.0481       130
  18.0676       119
  18.0870       145
  18.1064       141
  18.1259       134
  18.1453       121
  18.1648       142
  18.1842       117
  18.2036       136
  18.2231       122
  18.2425       142
  18.2620       141
  18.2814       129
  18.3008       125
  18.3203       135
  18.3397       141
  18.3592       116
  18.3786       130
  18.3980       144
  18.4175       133
  18.4369       145
  18.4564       139
  18.4758       112
  18.4952       125
  18.5147       129
  18.5341       150
  18.5536       157
  18.5730       151
  18.5924       133
  18.6119       143
  18.6313       119
  18.6508       126
  18.6702       135
  18.6896       124
  18.7091       147
  18.7285       136
  18.7480       147
  18.7674       129
  18.7868       118
  18.8063       120
  18.8257       138
  18.8452       148
  18.8646       157
  18.8840       125
  18.9035       131
  18.9229       143
  18.9424       135
  18.9618       117
  18.9812       136
  19.0007       122
  19.0201       149
  19.0396       142
  19.0590       150
  19.0784       140
  19.0979       154
  19.1173       148
  19.1368       141
  19.1562       143
  19.1756       128
  19.1951       154
  19.2145       147
  19.2340       135
  19.2534       122
  19.2728       130
  19.2923       138
  19.3117       163
  19.3312       151
  19.3506       143
  19.3700       172
  19.3895       148
  19.4089       139
  19.4284       151
  19.4478       142
  19.4672       137
  19.4867       119
  19.5061       149
  19.5256       142
  19.5450       133
  19.5644       127
  19.5839       149
  19.6033       158
  19.6228       140
  19.6422       144
  19.6616       151
  19.6811       154
  19.7005       168
  19.7199       151
  19.7394       140
  19.7588       164
  19.7783       152
  19.7977       134
  19.8171       161
  19.8366       157
  19.8560       130
  19.8755       135
  19.8949       143
  19.9143       141
  19.9338       137
  19.9532       148
  19.9727       139
  19.9921       156
  20.0115       164
  20.0310       126
  20.0504       138
  20.0699       141
  20.0893       140
  20.1087       140
  20.1282       139
  20.1476       143
  20.1671       157
  20.1865       150
  20.2059       155
  20.2254       154
  20.2448       131
  20.2643       142
  20.2837       132
  20.3031       145
  20.3226       132
  20.3420       133
  20.3615       161
  20.3809       133
  20.4003       147
  20.4198       152
  20.4392       160
  20.4587       148
  20.4781       147
  20.4975       157
  20.5170       140
  20.5364       184
  20.5559       145
  20.5753       144
  20.5947       135
  20.6142       169
  20.6336       151
  20.6531       151
  20.6725       153
  20.6919       153
  20.7114       168
  20.7308       147
  20.7503       162
  20.7697       149
  20.7891       148
  20.8086       170
  20.8280       172
  20.8475       138
  20.8669       160
  20.8863       143
  20.9058       140
  20.9252       141
  20.9447       162
  20.9641       152
  20.9835       154
  21.0030       158
  21.0224       147
  21.0419       163
  21.0613       149
  21.0807       149
  21.1002       173
  21.1196       160
  21.1391       173
  21.1585       149
  21.1779       143
  21.1974       165
  21.2168       155
  21.2363       142
  21.2557       167
  21.2751       158
  21.2946       158
  21.3140       148
  21.3335       131
  21.3529       154
  21.3723       141
  21.3918       175
  21.4112       155
  21.4307       168
  21.4501       134
  21.4695       147
  21.4890       135
  21.5084       171
  21.5279       148
  21.5473       170
  21.5667       162
  21.5862       172
  21.6056       147
  21.6251       167
  21.6445       150
  21.6639       152
  21.6834       175
  21.7028       168
  21.7223       157
  21.7417       156
  21.7611       153
  21.7806       150
  21.8000       172
  21.8195       158
  21.8389       168
  21.8583       158
  21.8778       155
  21.8972       170
  21.9167       160
  21.9361       162
  21.9555       159
  21.9750       150
  21.9944       170
  22.0139       152
  22.0333       171
  22.0527       161
  22.0722       159
  22.0916       159
  22.1111       174
  22.1305       158
  22.1499       187
  22.1694       164
  22.1888       165
  22.2083       166
  22.2277       153
  22.2471       174
  22.2666       161
  22.2860       170
  22.3055       145
  22.3249       152
  22.3443       169
  22.3638       191
  22.3832       163
  22.4027       144
  22.4221       168
  22.4415       167
  22.4610       165
  22.4804       155
  22.4999       138
  22.5193       168
  22.5387       180
  22.5582       161
  22.5776       161
  22.5971       166
  22.6165       176
  22.6359       177
  22.6554       162
  22.6748       164
  22.6943       148
  22.7137       151
  22.7331       161
  22.7526       180
  22.7720       179
  22.7915       180
  22.8109       169
  22.8303       177
  22.8498       163
  22.8692       175
  22.8887       154
  22.9081       158
  22.9275       172
  22.9470       176
  22.9664       160
  22.9859       155
  23.0053       152
  23.0247       156
  23.0442       177
  23.0636       172
  23.0831       171
  23.1025       150
  23.1219       170
  23.1414       153
  23.1608       155
  23.1803       174
  23.1997       183
  23.2191       137
  23.2386       169
  23.2580       179
  23.2775       149
  23.2969       173
  23.3163       179
  23.3358       157
  23.3552       175
  23.3747       158
  23.3941       164
  23.4135       147
  23.4330       176
  23.4524       184
  23.4719       169
  23.4913       171
  23.5107       158
  23.5302       166
  23.5496       135
  23.5691       210
  23.5885       172
  23.6079       156
  23.6274       181
  23.6468       202
  23.6662       188
  23.6857       204
  23.7051       176
  23.7246       168
  23.7440       174
  23.7634       167
  23.7829       166
  23.8023       163
  23.8218       159
  23.8412       182
  23.8606       187
  23.8801       191
  23.8995       161
  23.9190       183
  23.9384       178
  23.9578       207
  23.9773       187
  23.9967       200
  24.0162       184
  24.0356       178
  24.0550       174
  24.0745       157
  24.0939       163
  24.1134       177
  24.1328       178
  24.1522       178
  24.1717       172
  24.1911       181
  24.2106       184
  24.2300       177
  24.2494       187
  24.2689       182
  24.2883       179
  24.3078       168
  24.3272       195
  24.3466       170
  24.3661       197
  24.3855       180
  24.4050       172
  24.4244       188
  24.4438       163
  24.4633       178
  24.4827       182
  24.5022       171
  24.5216       174
  24.5410       173
  24.5605       214
  24.5799       174
  24.5994       193
  24.6188       204
  24.6382       188
  24.6577       172
  24.6771       158
  24.6966       161
  24.7160       187
  24.7354       175
  24.7549       157
  24.7743       176
  24.7938       153
  24.8132       192
  24.8326       189
  24.8521       172
  24.8715       162
  24.8910       142
  24.9104       179
  24.9298       178
  24.9493       168
  24.9687       163
  24.9882       164
  25.0076       208
  25.0270       226
  25.0465       170
  25.0659       177
  25.0854       161
  25.1048       198
  25.1242       176
  25.1437       205
  25.1631       184
  25.1826       168
  25.2020       148
  25.2214       181
  25.2409       214
  25.2603       191
  25.2798       181
  25.2992       153
  25.3186       173
  25.3381       198
  25.3575       181
  25.3770       205
  25.3964       162
  25.4158       170
  25.4353       163
  25.4547       196
  25.4742       163
  25.4936       199
  25.5130       165
  25.5325       185
  25.5519       169
  25.5714       202
  25.5908       166
  25.6102       164
  25.6297       172
  25.6491       178
  25.6686       183
  25.6880       178
  25.7074       178
  25.7269       166
  25.7463       187
  25.7658       210
  25.7852       164
  25.8046       163
  25.8241       172
  25.8435       180
  25.8630       167
  25.8824       192
  25.9018       163
  25.9213       200
  25.9407       190
  25.9602       158
  25.9796       200
  25.9990       185
  26.0185       177
  26.0379       193
  26.0574       153
  26.0768       180
  26.0962       185
  26.1157       186
  26.1351       182
  26.1546       174
  26.1740       194
  26.1934       184
  26.2129       180
  26.2323       186
  26.2518       204
  26.2712       197
  26.2906       201
  26.3101       152
  26.3295       170
  26.3490       168
  26.3684       178
  26.3878       162
  26.4073       181
  26.4267       164
  26.4462       160
  26.4656       193
  26.4850       189
  26.5045       204
  26.5239       188
  26.5434       166
  26.5628       156
  26.5822       174
  26.6017       179
  26.6211       198
  26.6406       169
  26.6600       186
  26.6794       200
  26.6989       180
  26.7183       183
  26.7378       192
  26.7572       184
  26.7766       196
  26.7961       166
  26.8155       201
  26.8350       178
  26.8544       186
  26.8738       181
  26.8933       171
  26.9127       180
  26.9322       189
  26.9516       160
  26.9710       183
  26.9905       186
  27.0099       175
  27.0294       191
  27.0488       184
  27.0682       174
  27.0877       175
  27.1071       165
  27.1266       185
  27.1460       193
  27.1654       186
  27.1849       188
  27.2043       217
  27.2238       191
  27.2432       173
  27.2626       232
  27.2821       200
  27.3015       204
  27.3210       187
  27.3404       174
  27.3598       203
  27.3793       188
  27.3987       177
  27.4182       205
  27.4376       195
  27.4570       165
  27.4765       169
  27.4959       209
  27.5153       192
  27.5348       227
  27.5542       223
  27.5737       182
  27.5931       208
  27.6125       177
  27.6320       186
  27.6514       187
  27.6709       211
  27.6903       167
  27.7097       218
  27.7292       182
  27.7486       205
  27.7681       191
  27.7875       177
  27.8069       203
  27.8264       179
  27.8458       158
  27.8653       188
  27.8847       205
  27.9041       187
  27.9236       218
  27.9430       187
  27.9625       185
  27.9819       186
  28.0013       206
  28.0208       193
  28.0402       201
  28.0597       177
  28.0791       180
  28.0985       180
  28.1180       193
  28.1374       187
  28.1569       186
  28.1763       181
  28.1957       194
  28.2152       213
  28.2346       190
  28.2541       184
  28.2735       210
  28.2929       190
  28.3124       199
  28.3318       194
  28.3513       204
  28.3707       218
  28.3901       212
  28.4096       202
  28.4290       170
  28.4485       208
  28.4679       201
  28.4873       169
  28.5068       200
  28.5262       173
  28.5457       213
  28.5651       191
  28.5845       188
  28.6040       196
  28.6234       180
  28.6429       191
  28.6623       187
  28.6817       206
  28.7012       199
  28.7206       179
  28.7401       183
  28.7595       185
  28.7789       198
  28.7984       156
  28.8178       188
  28.8373       204
  28.8567       201
  28.8761       164
  28.8956       203
  28.9150       178
  28.9345       175
  28.9539       202
  28.9733       206
  28.9928       172
  29.0122       182
  29.0317       203
  29.0511       165
  29.0705       191
  29.0900       194
  29.1094       213
  29.1289       193
  29.1483       204
  29.1677       201
  29.1872       201
  29.2066       190
  29.2261       180
  29.2455       173
  29.2649       189
  29.2844       190
  29.3038       188
  29.3233       170
  29.3427       208
  29.3621       190
  29.3816       195
  29.4010       205
  29.4205       188
  29.4399       168
  29.4593       203
  29.4788       204
  29.4982       172
  29.5177       203
  29.5371       201
  29.5565       173
  29.5760       196
  29.5954       173
  29.6149       205
  29.6343       211
  29.6537       206
  29.6732       185
  29.6926       243
  29.7121       216
  29.7315       189
  29.7509       196
  29.7704       194
  29.7898       218
  29.8093       203
  29.8287       198
  29.8481       186
  29.8676       204
  29.8870       202
  29.9065       210
  29.9259       183
  29.9453       194
  29.9648       181
  29.9842       189
  30.0037       195
  30.0231       180
  30.0425       191
  30.0620       193
  30.0814       194
  30.1009       197
  30.1203       178
  30.1397       208
  30.1592       186
  30.1786       212
  30.1981       171
  30.2175       218
  30.2369       195
  30.2564       198
  30.2758       184
  30.2953       201
  30.3147       216
  30.3341       189
  30.3536       185
  30.3730       197
  30.3925       195
  30.4119       164
  30.4313       196
  30.4508       202
  30.4702       231
  30.4897       170
  30.5091       200
  30.5285       210
  30.5480       198
  30.5674       213
  30.5869       210
  30.6063       217
  30.6257       196
  30.6452       226
  30.6646       206
  30.6841       189
  30.7035       217
  30.7229       208
  30.7424       214
  30.7618       217
  30.7813       182
  30.8007       186
  30.8201       217
  30.8396       202
  30.8590       229
  30.8785       202
  30.8979       175
  30.9173       217
  30.9368       196
  30.9562       204
  30.9757       199
  30.9951       206
  31.0145       192
  31.0340       195
  31.0534       202
  31.0729       190
  31.0923       174
  31.1117       190
  31.1312       189
  31.1506       202
  31.1701       190
  31.1895       200
  31.2089       217
  31.2284       184
  31.2478       192
  31.2673       196
  31.2867       202
  31.3061       196
  31.3256       192
  31.3450       193
  31.3645       220
  31.3839       190
  31.4033       210
  31.4228       219
  31.4422       200
  31.4616       193
  31.4811       206
  31.5005       217
  31.5200       210
  31.5394       160
  31.5588       186
  31.5783       180
  31.5977       201
  31.6172       212
  31.6366       223
  31.6560       195
  31.6755       199
  31.6949       193
  31.7144       187
  31.7338       198
  31.7532       241
  31.7727       189
  31.7921       200
  31.8116       193
  31.8310       184
  31.8504       207
  31.8699       202
  31.8893       190
  31.9088       219
  31.9282       232
  31.9476       195
  31.9671       203
  31.9865       192
  32.0060       186
  32.0254       192
  32.0448       181
  32.0643       215
  32.0837       194
  32.1032       224
  32.1226       193
  32.1420       222
  32.1615       208
  32.1809       194
  32.2004       233
  32.2198       219
  32.2392       196
  32.2587       203
  32.2781       198
  32.2976       202
  32.3170       208
  32.3364       225
  32.3559       196
  32.3753       192
  32.3948       201
  32.4142       205
  32.4336       194
  32.4531       213
  32.4725       193
  32.4920       177
  32.5114       225
  32.5308       212
  32.5503       189
  32.5697       229
  32.5892       188
  32.6086       216
  32.6280       228
  32.6475       223
  32.6669       203
  32.6864       199
  32.7058       226
  32.7252       224
  32.7447       209
  32.7641       195
  32.7836       207
  32.8030       218
  32.8224       213
  32.8419       209
  32.8613       195
  32.8808       210
  32.9002       196
  32.9196       220
  32.9391       226
  32.9585       216
  32.9780       232
  32.9974       226
  33.0168       232
  33.0363       217
  33.0557       221
  33.0752       240
  33.0946       227
  33.1140       189
  33.1335       196
  33.1529       181
  33.1724       202
  33.1918       217
  33.2112       221
  33.2307       219
  33.2501       234
  33.2696       203
  33.2890       192
  33.3084       205
  33.3279       220
  33.3473       207
  33.3668       217
  33.3862       200
  33.4056       191
  33.4251       179
  33.4445       209
  33.4640       205
  33.4834       199
  33.5028       190
  33.5223       185
  33.5417       215
  33.5612       208
  33.5806       230
  33.6000       210
  33.6195       206
  33.6389       196
  33.6584       205
  33.6778       228
  33.6972       209
  33.7167       200
  33.7361       209
  33.7556       195
  33.7750       207
  33.7944       220
  33.8139       229
  33.8333       213
  33.8528       175
  33.8722       234
  33.8916       205
  33.9111       224
  33.9305       185
  33.9500       210
  33.9694       201
  33.9888       225
  34.0083       191
  34.0277       219
  34.0472       213
  34.0666       186
  34.0860       190
  34.1055       223
  34.1249       209
  34.1444       213
  34.1638       201
  34.1832       185
  34.2027       215
  34.2221       207
  34.2416       218
  34.2610       203
  34.2804       193
  34.2999       195
  34.3193       198
  34.3388       210
  34.3582       197
  34.3776       203
  34.3971       177
  34.4165       187
  34.4360       175
  34.4554       203
  34.4748       209
  34.4943       213
  34.5137       232
  34.5332       184
  34.5526       176
  34.5720       220
  34.5915       210
  34.6109       214
  34.6304       219
  34.6498       207
  34.6692       186
  34.6887       202
  34.7081       201
  34.7276       223
  34.7470       206
  34.7664       212
  34.7859       189
  34.8053       221
  34.8248       212
  34.8442       210
  34.8636       195
  34.8831       227
  34.9025       217
  34.9220       209
  34.9414       203
  34.9608       176
  34.9803       207
  34.9997       210
  35.0192       187
  35.0386       214
  35.0580       219
  35.0775       199
  35.0969       226
  35.1164       195
  35.1358       195
  35.1552       203
  35.1747       191
  35.1941       204
  35.2136       211
  35.2330       211
  35.2524       214
  35.2719       203
  35.2913       227
  35.3107       193
  35.3302       169
  35.3496       209
  35.3691       213
  35.3885       214
  35.4079       208
  35.4274       201
  35.4468       212
  35.4663       197
  35.4857       204
  35.5051       213
  35.5246       211
  35.5440       219
  35.5635       222
  35.5829       178
  35.6023       183
  35.6218       196
  35.6412       216
  35.6607       223
  35.6801       197
  35.6995       236
  35.7190       182
  35.7384       174
  35.7579       216
  35.7773       239
  35.7967       188
  35.8162       196
  35.8356       199
  35.8551       196
  35.8745       206
  35.8939       212
  35.9134       223
  35.9328       237
  35.9523       220
  35.9717       199
  35.9911       173
  36.0106       223
  36.0300       188
  36.0495       217
  36.0689       216
  36.0883       222
  36.1078       202
  36.1272       207
  36.1467       192
  36.1661       206
  36.1855       220
  36.2050       234
  36.2244       224
  36.2439       222
  36.2633       195
  36.2827       207
  36.3022       179
  36.3216       222
  36.3411       209
  36.3605       215
  36.3799       194
  36.3994       209
  36.4188       223
  36.4383       230
  36.4577       227
  36.4771       217
  36.4966       228
  36.5160       227
  36.5355       223
  36.5549       229
  36.5743       208
  36.5938       207
  36.6132       241
  36.6327       221
  36.6521       214
  36.6715       223
  36.6910       195
  36.7104       209
  36.7299       210
  36.7493       227
  36.7687       215
  36.7882       233
  36.8076       197
  36.8271       188
  36.8465       213
  36.8659       220
  36.8854       220
  36.9048       196
  36.9243       191
  36.9437       201
  36.9631       211
  36.9826       215
  37.0020       197
  37.0215       192
  37.0409       204
  37.0603       200
  37.0798       196
  37.0992       260
  37.1187       205
  37.1381       209
  37.1575       202
  37.1770       183
  37.1964       225
  37.2159       185
  37.2353       187
  37.2547       238
  37.2742       227
  37.2936       190
  37.3131       223
  37.3325       191
  37.3519       212
  37.3714       195
  37.3908       211
  37.4103       239
  37.4297       208
  37.4491       204
  37.4686       224
  37.4880       214
  37.5075       214
  37.5269       189
  37.5463       200
  37.5658       228
  37.5852       192
  37.6047       203
  37.6241       202
  37.6435       227
  37.6630       190
  37.6824       211
  37.7019       224
  37.7213       230
  37.7407       216
  37.7602       222
  37.7796       210
  37.7991       223
  37.8185       198
  37.8379       225
  37.8574       219
  37.8768       234
  37.8963       225
  37.9157       226
  37.9351       215
  37.9546       213
  37.9740       212
  37.9935       211
  38.0129       207
  38.0323       225
  38.0518       204
  38.0712       204
  38.0907       205
  38.1101       228
  38.1295       234
  38.1490       208
  38.1684       203
  38.1879       211
  38.2073       202
  38.2267       207
  38.2462       214
  38.2656       207
  38.2851       209
  38.3045       210
  38.3239       211
  38.3434       192
  38.3628       210
  38.3823       203
  38.4017       214
  38.4211       222
  38.4406       198
  38.4600       214
  38.4795       226
  38.4989       213
  38.5183       236
  38.5378       191
  38.5572       226
  38.5767       219
  38.5961       210
  38.6155       216
  38.6350       200
  38.6544       205
  38.6739       197
  38.6933       216
  38.7127       230
  38.7322       236
  38.7516       199
  38.7711       188
  38.7905       167
  38.8099       215
  38.8294       196
  38.8488       210
  38.8683       204
  38.8877       224
  38.9071       207
  38.9266       225
  38.9460       191
  38.9655       205
  38.9849       204
  39.0043       239
  39.0238       223
  39.0432       213
  39.0627       220
  39.0821       228
  39.1015       196
  39.1210       213
  39.1404       213
  39.1598       226
  39.1793       238
  39.1987       190
  39.2182       215
  39.2376       214
  39.2570       203
  39.2765       202
  39.2959       209
  39.3154       232
  39.3348       209
  39.3542       226
  39.3737       227
  39.3931       217
  39.4126       221
  39.4320       265
  39.4514       208
  39.4709       241
  39.4903       222
  39.5098       214
  39.5292       219
  39.5486       205
  39.5681       240
  39.5875       211
  39.6070       210
  39.6264       222
  39.6458       221
  39.6653       222
  39.6847       205
  39.7042       218
  39.7236       211
  39.7430       209
  39.7625       189
  39.7819       242
  39.8014       234
  39.8208       207
  39.8402       216
  39.8597       195
  39.8791       198
  39.8986       211
  39.9180       197
  39.9374       223
  39.9569       216
  39.9763       214
  39.9958       223
  40.0152       208
  40.0346       207
  40.0541       203
  40.0735       219
  40.0930       236
  40.1124       212
  40.1318       219
  40.1513       222
  40.1707       224
  40.1902       221
  40.2096       230
  40.2290       234
  40.2485       211
  40.2679       217
  40.2874       232
  40.3068       237
  40.3262       207
  40.3457       194
  40.3651       223
  40.3846       191
  40.4040       228
  40.4234       221
  40.4429       246
  40.4623       248
  40.4818       207
  40.5012       206
  40.5206       212
  40.5401       216
  40.5595       211
  40.5790       215
  40.5984       251
  40.6178       212
  40.6373       204
  40.6567       226
  40.6762       236
  40.6956       232
  40.7150       222
  40.7345       226
  40.7539       235
  40.7734       200
  40.7928       210
  40.8122       222
  40.8317       207
  40.8511       241
  40.8706       232
  40.8900       230
  40.9094       218
  40.9289       211
  40.9483       205
  40.9678       228
  40.9872       237
  41.0066       219
  41.0261       243
  41.0455       239
  41.0650       249
  41.0844       190
  41.1038       236
  41.1233       235
  41.1427       228
  41.1622       229
  41.1816       227
  41.2010       199
  41.2205       204
  41.2399       206
  41.2594       215
  41.2788       194
  41.2982       239
  41.3177       228
  41.3371       243
  41.3566       230
  41.3760       207
  41.3954       217
  41.4149       222
  41.4343       261
  41.4538       213
  41.4732       220
  41.4926       226
  41.5121       219
  41.5315       242
  41.5510       212
  41.5704       241
  41.5898       227
  41.6093       245
  41.6287       208
  41.6482       222
  41.6676       241
  41.6870       197
  41.7065       208
  41.7259       208
  41.7454       233
  41.7648       231
  41.7842       196
  41.8037       217
  41.8231       188
  41.8426       203
  41.8620       246
  41.8814       214
  41.9009       214
  41.9203       205
  41.9398       219
  41.9592       248
  41.9786       210
  41.9981       219
  42.0175       203
  42.0370       214
  42.0564       215
  42.0758       260
  42.0953       196
  42.1147       196
  42.1342       204
  42.1536       183
  42.1730       197
  42.1925       215
  42.2119       223
  42.2314       238
  42.2508       200
  42.2702       218
  42.2897       214
  42.3091       202
  42.3286       210
  42.3480       195
  42.3674       221
  42.3869       206
  42.4063       222
  42.4258       182
  42.4452       209
  42.4646       259
  42.4841       235
  42.5035       225
  42.5230       229
  42.5424       218
  42.5618       198
  42.5813       212
  42.6007       235
  42.6202       224
  42.6396       234
  42.6590       238
  42.6785       225
  42.6979       221
  42.7174       192
  42.7368       202
  42.7562       221
  42.7757       220
  42.7951       228
  42.8146       211
  42.8340       209
  42.8534       221
  42.8729       231
  42.8923       200
  42.9118       204
  42.9312       219
  42.9506       217
  42.9701       220
  42.9895       221
  43.0090       208
  43.0284       226
  43.0478       223
  43.0673       220
  43.0867       245
  43.1061       247
  43.1256       202
  43.1450       230
  43.1645       238
  43.1839       210
  43.2033       214
  43.2228       213
  43.2422       230
  43.2617       211
  43.2811       221
  43.3005       219
  43.3200       221
  43.3394       231
  43.3589       229
  43.3783       247
  43.3977       249
  43.4172       224
  43.4366       235
  43.4561       228
  43.4755       240
  43.4949       243
  43.5144       241
  43.5338       241
  43.5533       248
  43.5727       274
  43.5921       316
  43.6116       367
  43.6310       424
  43.6505       451
  43.6699       491
  43.6893       644
  43.7088       677
  43.7282       514
  43.7477       466
  43.7671       381
  43.7865       443
  43.8060       440
  43.8254       419
  43.8449       354
  43.8643       258
  43.8837       249
  43.9032       243
  43.9226       234
  43.9421       227
  43.9615       235
  43.9809       235
  44.0004       236
  44.0198       231
  44.0393       213
  44.0587       238
  44.0781       192
  44.0976       226
  44.1170       209
  44.1365       228
  44.1559       243
  44.1753       204
  44.1948       229
  44.2142       231
  44.2337       223
  44.2531       220
  44.2725       246
  44.2920       228
  44.3114       229
  44.3309       224
  44.3503       217
  44.3697       213
  44.3892       208
  44.4086       217
  44.4281       258
  44.4475       236
  44.4669       232
  44.4864       213
  44.5058       238
  44.5253       229
  44.5447       212
  44.5641       231
  44.5836       252
  44.6030       214
  44.6225       247
  44.6419       245
  44.6613       246
  44.6808       209
  44.7002       180
  44.7197       240
  44.7391       190
  44.7585       223
  44.7780       225
  44.7974       211
  44.8169       207
  44.8363       253
  44.8557       231
  44.8752       210
  44.8946       228
  44.9141       242
  44.9335       213
  44.9529       221
  44.9724       232
  44.9918       221
  45.0113       225
  45.0307       216
  45.0501       216
  45.0696       214
  45.0890       221
  45.1085       202
  45.1279       215
  45.1473       233
  45.1668       213
  45.1862       209
  45.2057       197
  45.2251       218
  45.2445       233
  45.2640       213
  45.2834       223
  45.3029       264
  45.3223       216
  45.3417       226
  45.3612       224
  45.3806       209
  45.4001       223
  45.4195       211
  45.4389       206
  45.4584       229
  45.4778       254
  45.4973       217
  45.5167       228
  45.5361       223
  45.5556       238
  45.5750       212
  45.5945       228
  45.6139       223
  45.6333       235
  45.6528       251
  45.6722       204
  45.6917       241
  45.7111       249
  45.7305       234
  45.7500       237
  45.7694       216
  45.7889       245
  45.8083       224
  45.8277       232
  45.8472       233
  45.8666       250
  45.8861       238
  45.9055       188
  45.9249       222
  45.9444       217
  45.9638       221
  45.9833       220
  46.0027       214
  46.0221       267
  46.0416       234
  46.0610       250
  46.0805       233
  46.0999       216
  46.1193       225
  46.1388       236
  46.1582       226
  46.1777       259
  46.1971       234
  46.2165       239
  46.2360       229
  46.2554       226
  46.2749       239
  46.2943       263
  46.3137       250
  46.3332       264
  46.3526       231
  46.3721       212
  46.3915       236
  46.4109       242
  46.4304       249
  46.4498       225
  46.4693       254
  46.4887       222
  46.5081       242
  46.5276       244
  46.5470       221
  46.5665       218
  46.5859       210
  46.6053       232
  46.6248       234
  46.6442       240
  46.6637       206
  46.6831       221
  46.7025       254
  46.7220       223
  46.7414       205
  46.7609       228
  46.7803       253
  46.7997       231
  46.8192       229
  46.8386       215
  46.8581       225
  46.8775       223
  46.8969       217
  46.9164       261
  46.9358       247
  46.9552       219
  46.9747       229
  46.9941       211
  47.0136       252
  47.0330       255
  47.0524       235
  47.0719       219
  47.0913       210
  47.1108       236
  47.1302       209
  47.1496       228
  47.1691       238
  47.1885       215
  47.2080       220
  47.2274       204
  47.2468       215
  47.2663       220
  47.2857       233
  47.3052       241
  47.3246       223
  47.3440       234
  47.3635       251
  47.3829       227
  47.4024       247
  47.4218       222
  47.4412       226
  47.4607       226
  47.4801       208
  47.4996       207
  47.5190       224
  47.5384       233
  47.5579       252
  47.5773       243
  47.5968       227
  47.6162       243
  47.6356       238
  47.6551       241
  47.6745       224
  47.6940       235
  47.7134       238
  47.7328       242
  47.7523       212
  47.7717       230
  47.7912       256
  47.8106       234
  47.8300       208
  47.8495       198
  47.8689       237
  47.8884       197
  47.9078       219
  47.9272       238
  47.9467       200
  47.9661       217
  47.9856       218
  48.0050       202
  48.0244       206
  48.0439       234
  48.0633       223
  48.0828       235
  48.1022       229
  48.1216       236
  48.1411       245
  48.1605       262
  48.1800       243
  48.1994       215
  48.2188       236
  48.2383       229
  48.2577       239
  48.2772       238
  48.2966       245
  48.3160       213
  48.3355       233
  48.3549       255
  48.3744       204
  48.3938       231
  48.4132       224
  48.4327       210
  48.4521       217
  48.4716       213
  48.4910       254
  48.5104       220
  48.5299       227
  48.5493       209
  48.5688       218
  48.5882       251
  48.6076       242
  48.6271       205
  48.6465       237
  48.6660       231
  48.6854       237
  48.7048       223
  48.7243       239
  48.7437       242
  48.7632       214
  48.7826       254
  48.8020       221
  48.8215       225
  48.8409       244
  48.8604       224
  48.8798       221
  48.8992       249
  48.9187       237
  48.9381       242
  48.9576       246
  48.9770       246
  48.9964       268
  49.0159       231
  49.0353       216
  49.0548       202
  49.0742       253
  49.0936       239
  49.1131       218
  49.1325       241
  49.1520       258
  49.1714       220
  49.1908       210
  49.2103       226
  49.2297       240
  49.2492       242
  49.2686       247
  49.2880       225
  49.3075       225
  49.3269       234
  49.3464       198
  49.3658       234
  49.3852       216
  49.4047       249
  49.4241       242
  49.4436       222
  49.4630       232
  49.4824       229
  49.5019       218
  49.5213       228
  49.5408       217
  49.5602       233
  49.5796       240
  49.5991       243
  49.6185       213
  49.6380       227
  49.6574       239
  49.6768       229
  49.6963       225
  49.7157       226
  49.7352       227
  49.7546       203
  49.7740       223
  49.7935       231
  49.8129       256
  49.8324       222
  49.8518       235
  49.8712       212
  49.8907       244
  49.9101       241
  49.9296       213
  49.9490       218
  49.9684       219
  49.9879       230
  50.0073       223
  50.0268       245
  50.0462       203
  50.0656       212
  50.0851       231
  50.1045       217
  50.1240       231
  50.1434       222
  50.1628       233
  50.1823       224
  50.2017       202
  50.2212       264
  50.2406       231
  50.2600       223
  50.2795       216
  50.2989       241
  50.3184       206
  50.3378       259
  50.3572       224
  50.3767       215
  50.3961       225
  50.4156       241
  50.4350       241
  50.4544       223
  50.4739       208
  50.4933       240
  50.5128       213
  50.5322       241
  50.5516       264
  50.5711       227
  50.5905       281
  50.6100       232
  50.6294       229
  50.6488       246
  50.6683       251
  50.6877       244
  50.7072       262
  50.7266       303
  50.7460       284
  50.7655       264
  50.7849       374
  50.8044       455
  50.8238       534
  50.8432       542
  50.8627       477
  50.8821       349
  50.9015       308
  50.9210       324
  50.9404       351
  50.9599       363
  50.9793       345
  50.9987       363
  51.0182       274
  51.0376       233
  51.0571       245
  51.0765       219
  51.0959       248
  51.1154       227
  51.1348       258
  51.1543       253
  51.1737       226
  51.1931       220
  51.2126       221
  51.2320       228
  51.2515       205
  51.2709       224
  51.2903       238
  51.3098       229
  51.3292       213
  51.3487       206
  51.3681       227
  51.3875       226
  51.4070       246
  51.4264       217
  51.4459       250
  51.4653       230
  51.4847       243
  51.5042       228
  51.5236       205
  51.5431       217
  51.5625       244
  51.5819       214
  51.6014       225
  51.6208       240
  51.6403       234
  51.6597       206
  51.6791       244
  51.6986       225
  51.7180       229
  51.7375       221
  51.7569       236
  51.7763       246
  51.7958       262
  51.8152       208
  51.8347       228
  51.8541       219
  51.8735       241
  51.8930       262
  51.9124       233
  51.9319       221
  51.9513       239
  51.9707       244
  51.9902       229
  52.0096       255
  52.0291       234
  52.0485       260
  52.0679       239
  52.0874       214
  52.1068       249
  52.1263       223
  52.1457       245
  52.1651       252
  52.1846       243
  52.2040       232
  52.2235       246
  52.2429       229
  52.2623       248
  52.2818       217
  52.3012       261
  52.3207       247
  52.3401       246
  52.3595       230
  52.3790       215
  52.3984       242
  52.4179       229
  52.4373       271
  52.4567       225
  52.4762       212
  52.4956       238
  52.5151       250
  52.5345       224
  52.5539       227
  52.5734       219
  52.5928       218
  52.6123       236
  52.6317       244
  52.6511       219
  52.6706       214
  52.6900       242
  52.7095       202
  52.7289       228
  52.7483       230
  52.7678       228
  52.7872       241
  52.8067       205
  52.8261       240
  52.8455       218
  52.8650       235
  52.8844       216
  52.9039       221
  52.9233       236
  52.9427       240
  52.9622       258
  52.9816       228
  53.0011       231
  53.0205       234
  53.0399       222
  53.0594       227
  53.0788       245
  53.0983       214
  53.1177       239
  53.1371       214
  53.1566       227
  53.1760       233
  53.1955       237
  53.2149       218
  53.2343       249
  53.2538       241
  53.2732       225
  53.2927       245
  53.3121       229
  53.3315       249
  53.3510       234
  53.3704       253
  53.3899       242
  53.4093       241
  53.4287       257
  53.4482       233
  53.4676       209
  53.4871       224
  53.5065       221
  53.5259       235
  53.5454       234
  53.5648       252
  53.5843       237
  53.6037       247
  53.6231       197
  53.6426       241
  53.6620       212
  53.6815       220
  53.7009       219
  53.7203       232
  53.7398       242
  53.7592       235
  53.7787       233
  53.7981       229
  53.8175       243
  53.8370       230
  53.8564       264
  53.8759       241
  53.8953       203
  53.9147       225
  53.9342       207
  53.9536       242
  53.9731       234
  53.9925       235
  54.0119       246
  54.0314       215
  54.0508       229
  54.0703       250
  54.0897       245
  54.1091       239
  54.1286       236
  54.1480       227
  54.1675       242
  54.1869       231
  54.2063       248
  54.2258       253
  54.2452       245
  54.2647       234
  54.2841       237
  54.3035       267
  54.3230       244
  54.3424       229
  54.3619       233
  54.3813       270
  54.4007       252
  54.4202       214
  54.4396       230
  54.4591       214
  54.4785       227
  54.4979       230
  54.5174       248
  54.5368       211
  54.5563       226
  54.5757       235
  54.5951       235
  54.6146       237
  54.6340       247
  54.6535       224
  54.6729       203
  54.6923       233
  54.7118       238
  54.7312       250
  54.7506       235
  54.7701       230
  54.7895       234
  54.8090       227
  54.8284       201
  54.8478       209
  54.8673       263
  54.8867       250
  54.9062       230
  54.9256       232
  54.9450       220
  54.9645       249
  54.9839       228
  55.0034       231
  55.0228       236
  55.0422       229
  55.0617       251
  55.0811       220
  55.1006       238
  55.1200       232
  55.1394       242
  55.1589       235
  55.1783       258
  55.1978       241
  55.2172       255
  55.2366       223
  55.2561       230
  55.2755       257
  55.2950       220
  55.3144       234
  55.3338       219
  55.3533       229
  55.3727       226
  55.3922       202
  55.4116       232
  55.4310       249
  55.4505       227
  55.4699       223
  55.4894       219
  55.5088       236
  55.5282       216
  55.5477       228
  55.5671       228
  55.5866       230
  55.6060       236
  55.6254       222
  55.6449       214
  55.6643       232
  55.6838       224
  55.7032       226
  55.7226       221
  55.7421       240
  55.7615       219
  55.7810       233
  55.8004       236
  55.8198       235
  55.8393       234
  55.8587       217
  55.8782       218
  55.8976       225
  55.9170       207
  55.9365       227
  55.9559       230
  55.9754       235
  55.9948       228
  56.0142       233
  56.0337       246
  56.0531       222
  56.0726       236
  56.0920       206
  56.1114       253
  56.1309       255
  56.1503       253
  56.1698       218
  56.1892       235
  56.2086       249
  56.2281       201
  56.2475       223
  56.2670       245
  56.2864       265
  56.3058       253
  56.3253       231
  56.3447       241
  56.3642       249
  56.3836       246
  56.4030       224
  56.4225       242
  56.4419       236
  56.4614       233
  56.4808       243
  56.5002       214
  56.5197       208
  56.5391       228
  56.5586       258
  56.5780       264
  56.5974       227
  56.6169       225
  56.6363       244
  56.6558       245
  56.6752       233
  56.6946       214
  56.7141       245
  56.7335       248
  56.7530       229
  56.7724       267
  56.7918       263
  56.8113       224
  56.8307       200
  56.8502       244
  56.8696       211
  56.8890       263
  56.9085       222
  56.9279       234
  56.9474       238
  56.9668       219
  56.9862       231
  57.0057       226
  57.0251       252
  57.0446       218
  57.0640       196
  57.0834       248
  57.1029       244
  57.1223       253
  57.1418       243
  57.1612       252
  57.1806       237
  57.2001       249
  57.2195       219
  57.2390       225
  57.2584       240
  57.2778       220
  57.2973       260
  57.3167       252
  57.3362       219
  57.3556       254
  57.3750       237
  57.3945       221
  57.4139       232
  57.4334       227
  57.4528       245
  57.4722       237
  57.4917       251
  57.5111       228
  57.5306       248
  57.5500       241
  57.5694       226
  57.5889       241
  57.6083       211
  57.6278       210
  57.6472       214
  57.6666       207
  57.6861       233
  57.7055       202
  57.7250       231
  57.7444       213
  57.7638       218
  57.7833       216
  57.8027       273
  57.8222       228
  57.8416       253
  57.8610       236
  57.8805       258
  57.8999       239
  57.9194       237
  57.9388       227
  57.9582       230
  57.9777       234
  57.9971       231
  58.0166       249
  58.0360       235
  58.0554       224
  58.0749       250
  58.0943       227
  58.1138       211
  58.1332       228
  58.1526       246
  58.1721       254
  58.1915       228
  58.2110       240
  58.2304       239
  58.2498       241
  58.2693       221
  58.2887       239
  58.3082       227
  58.3276       230
  58.3470       230
  58.3665       212
  58.3859       228
  58.4054       244
  58.4248       235
  58.4442       227
  58.4637       232
  58.4831       217
  58.5026       226
  58.5220       243
  58.5414       234
  58.5609       218
  58.5803       235
  58.5998       220
  58.6192       233
  58.6386       258
  58.6581       201
  58.6775       221
  58.6969       243
  58.7164       224
  58.7358       248
  58.7553       252
  58.7747       239
  58.7941       227
  58.8136       228
  58.8330       263
  58.8525       215
  58.8719       253
  58.8913       228
  58.9108       238
  58.9302       211
  58.9497       246
  58.9691       238
  58.9885       212
  59.0080       236
  59.0274       245
  59.0469       246
  59.0663       234
  59.0857       234
  59.1052       258
  59.1246       250
  59.1441       240
  59.1635       243
  59.1829       247
  59.2024       237
  59.2218       224
  59.2413       244
  59.2607       213
  59.2801       224
  59.2996       230
  59.3190       216
  59.3385       230
  59.3579       229
  59.3773       255
  59.3968       233
  59.4162       226
  59.4357       242
  59.4551       260
  59.4745       219
  59.4940       232
  59.5134       228
  59.5329       226
  59.5523       237
  59.5717       246
  59.5912       231
  59.6106       214
  59.6301       228
  59.6495       214
  59.6689       227
  59.6884       240
  59.7078       244
  59.7273       250
  59.7467       215
  59.7661       239
  59.7856       226
  59.8050       262
  59.8245       221
  59.8439       231
  59.8633       254
  59.8828       212
  59.9022       210
  59.9217       209
  59.9411       215
  59.9605       218
  59.9800       246
  59.9994       216
  60.0189       214
  60.0383       224
  60.0577       230
  60.0772       238
  60.0966       222
  60.1161       219
  60.1355       259
  60.1549       242
  60.1744       238
  60.1938       261
  60.2133       213
  60.2327       226
  60.2521       263
  60.2716       233
  60.2910       252
  60.3105       231
  60.3299       249
  60.3493       210
  60.3688       235
  60.3882       227
  60.4077       219
  60.4271       220
  60.4465       260
  60.4660       251
  60.4854       251
  60.5049       239
  60.5243       252
  60.5437       262
  60.5632       239
  60.5826       211
  60.6021       232
  60.6215       235
  60.6409       234
  60.6604       223
  60.6798       232
  60.6993       200
  60.7187       250
  60.7381       240
  60.7576       246
  60.7770       264
  60.7965       251
  60.8159       218
  60.8353       238
  60.8548       243
  60.8742       236
  60.8937       262
  60.9131       255
  60.9325       244
  60.9520       237
  60.9714       222
  60.9909       215
  61.0103       236
  61.0297       228
  61.0492       216
  61.0686       231
  61.0881       231
  61.1075       249
  61.1269       233
  61.1464       232
  61.1658       210
  61.1853       214
  61.2047       232
  61.2241       224
  61.2436       225
  61.2630       234
  61.2825       208
  61.3019       221
  61.3213       249
  61.3408       230
  61.3602       251
  61.3797       237
  61.3991       227
  61.4185       239
  61.4380       224
  61.4574       235
  61.4769       228
  61.4963       243
  61.5157       233
  61.5352       255
  61.5546       253
  61.5741       251
  61.5935       215
  61.6129       216
  61.6324       228
  61.6518       221
  61.6713       247
  61.6907       240
  61.7101       227
  61.7296       203
  61.7490       268
  61.7685       261
  61.7879       240
  61.8073       245
  61.8268       246
  61.8462       224
  61.8657       224
  61.8851       234
  61.9045       243
  61.9240       241
  61.9434       240
  61.9629       238
  61.9823       274
  62.0017       239
  62.0212       268
  62.0406       251
  62.0601       243
  62.0795       258
  62.0989       238
  62.1184       239
  62.1378       221
  62.1573       226
  62.1767       206
  62.1961       232
  62.2156       241
  62.2350       232
  62.2545       270
  62.2739       243
  62.2933       251
  62.3128       226
  62.3322       199
  62.3517       225
  62.3711       239
  62.3905       232
  62.4100       228
  62.4294       250
  62.4489       240
  62.4683       216
  62.4877       245
  62.5072       240
  62.5266       238
  62.5460       265
  62.5655       247
  62.5849       242
  62.6044       238
  62.6238       237
  62.6432       254
  62.6627       236
  62.6821       215
  62.7016       229
  62.7210       244
  62.7404       229
  62.7599       250
  62.7793       208
  62.7988       250
  62.8182       216
  62.8376       235
  62.8571       251
  62.8765       219
  62.8960       258
  62.9154       260
  62.9348       227
  62.9543       228
  62.9737       231
  62.9932       240
  63.0126       241
  63.0320       217
  63.0515       237
  63.0709       237
  63.0904       229
  63.1098       229
  63.1292       244
  63.1487       251
  63.1681       238
  63.1876       236
  63.2070       246
  63.2264       218
  63.2459       245
  63.2653       204
  63.2848       248
  63.3042       259
  63.3236       214
  63.3431       233
  63.3625       220
  63.3820       244
  63.4014       223
  63.4208       231
  63.4403       227
  63.4597       205
  63.4792       238
  63.4986       248
  63.5180       257
  63.5375       248
  63.5569       219
  63.5764       220
  63.5958       249
  63.6152       262
  63.6347       255
  63.6541       235
  63.6736       215
  63.6930       249
  63.7124       252
  63.7319       236
  63.7513       252
  63.7708       229
  63.7902       245
  63.8096       218
  63.8291       228
  63.8485       229
  63.8680       235
  63.8874       234
  63.9068       214
  63.9263       249
  63.9457       244
  63.9652       245
  63.9846       258
  64.0040       231
  64.0235       211
  64.0429       223
  64.0624       233
  64.0818       241
  64.1012       251
  64.1207       209
  64.1401       231
  64.1596       238
  64.1790       247
  64.1984       216
  64.2179       235
  64.2373       257
  64.2568       234
  64.2762       231
  64.2956       219
  64.3151       236
  64.3345       236
  64.3540       206
  64.3734       273
  64.3928       231
  64.4123       248
  64.4317       217
  64.4512       270
  64.4706       234
  64.4900       257
  64.5095       214
  64.5289       203
  64.5484       244
  64.5678       218
  64.5872       223
  64.6067       253
  64.6261       237
  64.6456       265
  64.6650       248
  64.6844       260
  64.7039       242
  64.7233       224
  64.7428       270
  64.7622       230
  64.7816       245
  64.8011       234
  64.8205       218
  64.8400       252
  64.8594       264
  64.8788       240
  64.8983       246
  64.9177       247
  64.9372       239
  64.9566       240
  64.9760       254
  64.9955       231
  65.0149       225
  65.0344       242
  65.0538       243
  65.0732       226
  65.0927       245
  65.1121       254
  65.1316       230
  65.1510       242
  65.1704       272
  65.1899       225
  65.2093       224
  65.2288       232
  65.2482       235
  65.2676       248
  65.2871       222
  65.3065       238
  65.3260       234
  65.3454       248
  65.3648       218
  65.3843       221
  65.4037       231
  65.4232       258
  65.4426       227
  65.4620       222
  65.4815       260
  65.5009       257
  65.5204       240
  65.5398       219
  65.5592       224
  65.5787       209
  65.5981       246
  65.6176       249
  65.6370       221
  65.6564       223
  65.6759       239
  65.6953       214
  65.7148       219
  65.7342       247
  65.7536       249
  65.7731       252
  65.7925       248
  65.8120       222
  65.8314       256
  65.8508       247
  65.8703       237
  65.8897       234
  65.9092       250
  65.9286       266
  65.9480       225
  65.9675       230
  65.9869       246
  66.0064       224
  66.0258       228
  66.0452       230
  66.0647       223
  66.0841       247
  66.1036       229
  66.1230       254
  66.1424       238
  66.1619       261
  66.1813       263
  66.2008       250
  66.2202       257
  66.2396       231
  66.2591       248
  66.2785       209
  66.2980       243
  66.3174       244
  66.3368       221
  66.3563       247
  66.3757       223
  66.3951       231
  66.4146       230
  66.4340       243
  66.4535       258
  66.4729       246
  66.4923       222
  66.5118       249
  66.5312       254
  66.5507       224
  66.5701       224
  66.5895       258
  66.6090       239
  66.6284       218
  66.6479       248
  66.6673       233
  66.6867       241
  66.7062       230
  66.7256       215
  66.7451       216
  66.7645       286
  66.7839       245
  66.8034       240
  66.8228       241
  66.8423       224
  66.8617       253
  66.8811       242
  66.9006       243
  66.9200       228
  66.9395       241
  66.9589       240
  66.9783       205
  66.9978       272
  67.0172       240
  67.0367       273
  67.0561       238
  67.0755       232
  67.0950       220
  67.1144       268
  67.1339       246
  67.1533       216
  67.1727       256
  67.1922       227
  67.2116       259
  67.2311       211
  67.2505       235
  67.2699       261
  67.2894       209
  67.3088       230
  67.3283       239
  67.3477       261
  67.3671       253
  67.3866       222
  67.4060       233
  67.4255       236
  67.4449       226
  67.4643       224
  67.4838       218
  67.5032       236
  67.5227       212
  67.5421       214
  67.5615       244
  67.5810       245
  67.6004       249
  67.6199       234
  67.6393       239
  67.6587       280
  67.6782       257
  67.6976       247
  67.7171       246
  67.7365       239
  67.7559       252
  67.7754       264
  67.7948       260
  67.8143       230
  67.8337       260
  67.8531       244
  67.8726       245
  67.8920       235
  67.9115       226
  67.9309       244
  67.9503       237
  67.9698       212
  67.9892       233
  68.0087       227
  68.0281       253
  68.0475       242
  68.0670       224
  68.0864       230
  68.1059       221
  68.1253       257
  68.1447       254
  68.1642       239
  68.1836       238
  68.2031       235
  68.2225       235
  68.2419       239
  68.2614       242
  68.2808       247
  68.3003       254
  68.3197       215
  68.3391       241
  68.3586       236
  68.3780       236
  68.3975       226
  68.4169       238
  68.4363       225
  68.4558       258
  68.4752       246
  68.4947       228
  68.5141       225
  68.5335       242
  68.5530       240
  68.5724       262
  68.5919       240
  68.6113       241
  68.6307       248
  68.6502       237
  68.6696       256
  68.6891       227
  68.7085       220
  68.7279       235
  68.7474       255
  68.7668       237
  68.7863       209
  68.8057       257
  68.8251       243
  68.8446       207
  68.8640       227
  68.8835       233
  68.9029       242
  68.9223       204
  68.9418       238
  68.9612       238
  68.9807       255
  69.0001       241
  69.0195       242
  69.0390       232
  69.0584       212
  69.0779       217
  69.0973       227
  69.1167       246
  69.1362       249
  69.1556       221
  69.1751       275
  69.1945       249
  69.2139       233
  69.2334       230
  69.2528       249
  69.2723       241
  69.2917       233
  69.3111       234
  69.3306       232
  69.3500       246
  69.3695       236
  69.3889       264
  69.4083       235
  69.4278       269
  69.4472       251
  69.4667       250
  69.4861       229
  69.5055       233
  69.5250       223
  69.5444       231
  69.5639       213
  69.5833       264
  69.6027       220
  69.6222       251
  69.6416       226
  69.6611       255
  69.6805       253
  69.6999       241
  69.7194       254
  69.7388       231
  69.7583       237
  69.7777       214
  69.7971       219
  69.8166       240
  69.8360       265
  69.8555       237
  69.8749       248
  69.8943       230
  69.9138       233
  69.9332       224
  69.9527       232
  69.9721       266
  69.9915       238
  70.0110       222
  70.0304       237
  70.0499       245
  70.0693       247
  70.0887       266
  70.1082       238
  70.1276       240
  70.1471       221
  70.1665       245
  70.1859       240
  70.2054       241
  70.2248       235
  70.2443       233
  70.2637       276
  70.2831       226
  70.3026       238
  70.3220       238
  70.3414       236
  70.3609       216
  70.3803       242
  70.3998       254
  70.4192       231
  70.4386       215
  70.4581       247
  70.4775       238
  70.4970       247
  70.5164       242
  70.5358       249
  70.5553       247
  70.5747       238
  70.5942       224
  70.6136       235
  70.6330       234
  70.6525       214
  70.6719       243
  70.6914       244
  70.7108       249
  70.7302       256
  70.7497       215
  70.7691       246
  70.7886       267
  70.8080       226
  70.8274       203
  70.8469       266
  70.8663       245
  70.8858       238
  70.9052       242
  70.9246       237
  70.9441       244
  70.9635       220
  70.9830       220
  71.0024       251
  71.0218       275
  71.0413       256
  71.0607       244
  71.0802       237
  71.0996       223
  71.1190       238
  71.1385       239
  71.1579       261
  71.1774       259
  71.1968       226
  71.2162       219
  71.2357       236
  71.2551       240
  71.2746       231
  71.2940       224
  71.3134       257
  71.3329       247
  71.3523       234
  71.3718       269
  71.3912       234
  71.4106       265
  71.4301       226
  71.4495       238
  71.4690       222
  71.4884       264
  71.5078       199
  71.5273       233
  71.5467       245
  71.5662       240
  71.5856       252
  71.6050       287
  71.6245       239
  71.6439       202
  71.6634       244
  71.6828       233
  71.7022       251
  71.7217       276
  71.7411       226
  71.7606       257
  71.7800       244
  71.7994       236
  71.8189       210
  71.8383       285
  71.8578       249
  71.8772       241
  71.8966       269
  71.9161       221
  71.9355       238
  71.9550       211
  71.9744       227
  71.9938       278
  72.0133       222
  72.0327       254
  72.0522       227
  72.0716       252
  72.0910       236
  72.1105       250
  72.1299       266
  72.1494       252
  72.1688       236
  72.1882       256
  72.2077       231
  72.2271       251
  72.2466       249
  72.2660       249
  72.2854       251
  72.3049       259
  72.3243       252
  72.3438       281
  72.3632       211
  72.3826       227
  72.4021       248
  72.4215       240
  72.4410       246
  72.4604       273
  72.4798       251
  72.4993       225
  72.5187       242
  72.5382       255
  72.5576       258
  72.5770       210
  72.5965       237
  72.6159       227
  72.6354       250
  72.6548       225
  72.6742       221
  72.6937       240
  72.7131       232
  72.7326       287
  72.7520       260
  72.7714       258
  72.7909       271
  72.8103       243
  72.8298       231
  72.8492       243
  72.8686       236
  72.8881       261
  72.9075       237
  72.9270       252
  72.9464       246
  72.9658       223
  72.9853       244
  73.0047       263
  73.0242       233
  73.0436       268
  73.0630       237
  73.0825       235
  73.1019       252
  73.1214       241
  73.1408       227
  73.1602       224
  73.1797       279
  73.1991       259
  73.2186       280
  73.2380       230
  73.2574       254
  73.2769       226
  73.2963       279
  73.3158       247
  73.3352       273
  73.3546       252
  73.3741       216
  73.3935       282
  73.4130       252
  73.4324       272
  73.4518       253
  73.4713       241
  73.4907       227
  73.5102       257
  73.5296       248
  73.5490       259
  73.5685       260
  73.5879       268
  73.6074       239
  73.6268       229
  73.6462       254
  73.6657       289
  73.6851       254
  73.7046       246
  73.7240       239
  73.7434       228
  73.7629       241
  73.7823       276
  73.8018       273
  73.8212       239
  73.8406       252
  73.8601       248
  73.8795       267
  73.8990       214
  73.9184       222
  73.9378       224
  73.9573       238
  73.9767       266
  73.9962       266
  74.0156       246
  74.0350       242
  74.0545       241
  74.0739       267
  74.0934       266
  74.1128       267
  74.1322       261
  74.1517       267
  74.1711       294
  74.1905       274
  74.2100       255
  74.2294       263
  74.2489       279
  74.2683       259
  74.2877       262
  74.3072       292
  74.3266       308
  74.3461       294
  74.3655       316
  74.3849       452
  74.4044       514
  74.4238       884
  74.4433      1671
  74.4627      1946
  74.4821      1565
  74.5016      1021
  74.5210       671
  74.5405       504
  74.5599       395
  74.5793       385
  74.5988       412
  74.6182       452
  74.6377       624
  74.6571       943
  74.6765      1118
  74.6960       917
  74.7154       685
  74.7349       504
  74.7543       367
  74.7737       341
  74.7932       278
  74.8126       277
  74.8321       261
  74.8515       288
  74.8709       301
  74.8904       256
  74.9098       279
  74.9293       262
  74.9487       257
  74.9681       245
  74.9876       245
  75.0070       268
  75.0265       285
  75.0459       257
  75.0653       288
  75.0848       274
  75.1042       245
  75.1237       282
  75.1431       241
  75.1625       254
  75.1820       246
  75.2014       236
  75.2209       246
  75.2403       241
  75.2597       246
  75.2792       240
  75.2986       238
  75.3181       271
  75.3375       233
  75.3569       259
  75.3764       264
  75.3958       228
  75.4153       252
  75.4347       263
  75.4541       273
  75.4736       271
  75.4930       267
  75.5125       226
  75.5319       248
  75.5513       251
  75.5708       262
  75.5902       230
  75.6097       241
  75.6291       269
  75.6485       241
  75.6680       229
  75.6874       258
  75.7069       241
  75.7263       224
  75.7457       252
  75.7652       267
  75.7846       250
  75.8041       251
  75.8235       235
  75.8429       241
  75.8624       263
  75.8818       250
  75.9013       262
  75.9207       245
  75.9401       235
  75.9596       253
  75.9790       272
  75.9985       266
  76.0179       251
  76.0373       239
  76.0568       273
  76.0762       262
  76.0957       259
  76.1151       237
  76.1345       251
  76.1540       239
  76.1734       264
  76.1929       277
  76.2123       246
  76.2317       246
  76.2512       250
  76.2706       240
  76.2901       236
  76.3095       250
  76.3289       269
  76.3484       265
  76.3678       224
  76.3873       243
  76.4067       242
  76.4261       263
  76.4456       264
  76.4650       253
  76.4845       253
  76.5039       242
  76.5233       259
  76.5428       241
  76.5622       236
  76.5817       250
  76.6011       261
  76.6205       261
  76.6400       255
  76.6594       247
  76.6789       239
  76.6983       224
  76.7177       253
  76.7372       252
  76.7566       258
  76.7761       258
  76.7955       260
  76.8149       243
  76.8344       251
  76.8538       279
  76.8733       248
  76.8927       233
  76.9121       245
  76.9316       242
  76.9510       238
  76.9705       256
  76.9899       256
  77.0093       245
  77.0288       241
  77.0482       217
  77.0677       237
  77.0871       281
  77.1065       273
  77.1260       259
  77.1454       268
  77.1649       250
  77.1843       229
  77.2037       262
  77.2232       240
  77.2426       273
  77.2621       251
  77.2815       242
  77.3009       238
  77.3204       235
  77.3398       260
  77.3593       252
  77.3787       241
  77.3981       215
  77.4176       258
  77.4370       251
  77.4565       234
  77.4759       288
  77.4953       238
  77.5148       235
  77.5342       243
  77.5537       257
  77.5731       239
  77.5925       222
  77.6120       250
  77.6314       248
  77.6509       225
  77.6703       259
  77.6897       234
  77.7092       230
  77.7286       258
  77.7481       252
  77.7675       264
  77.7869       246
  77.8064       277
  77.8258       261
  77.8453       232
  77.8647       245
  77.8841       229
  77.9036       255
  77.9230       250
  77.9425       246
  77.9619       261
  77.9813       214
  78.0008       234
  78.0202       269
  78.0396       251
  78.0591       249
  78.0785       269
  78.0980       253
  78.1174       237
  78.1368       219
  78.1563       239
  78.1757       240
  78.1952       240
  78.2146       276
  78.2340       245
  78.2535       253
  78.2729       240
  78.2924       245
  78.3118       237
  78.3312       237
  78.3507       237
  78.3701       248
  78.3896       239
  78.4090       284
  78.4284       245
  78.4479       253
  78.4673       258
  78.4868       250
  78.5062       230
  78.5256       262
  78.5451       225
  78.5645       251
  78.5840       249
  78.6034       245
  78.6228       235
  78.6423       255
  78.6617       234
  78.6812       231
  78.7006       253
  78.7200       248
  78.7395       276
  78.7589       235
  78.7784       285
  78.7978       214
  78.8172       250
  78.8367       232
  78.8561       232
  78.8756       236
  78.8950       242
  78.9144       226
  78.9339       292
  78.9533       209
  78.9728       234
  78.9922       268
  79.0116       240
  79.0311       240
  79.0505       241
  79.0700       268
  79.0894       232
  79.1088       241
  79.1283       229
  79.1477       263
  79.1672       248
  79.1866       261
  79.2060       218
  79.2255       236
  79.2449       239
  79.2644       230
  79.2838       242
  79.3032       250
  79.3227       248
  79.3421       239
  79.3616       235
  79.3810       229
  79.4004       261
  79.4199       249
  79.4393       250
  79.4588       227
  79.4782       241
  79.4976       247
  79.5171       238
  79.5365       274
  79.5560       230
  79.5754       268
  79.5948       260
  79.6143       261
  79.6337       260
  79.6532       242
  79.6726       246
  79.6920       258
  79.7115       243
  79.7309       234
  79.7504       265
  79.7698       247
  79.7892       260
  79.8087       246
  79.8281       252
  79.8476       242
  79.8670       241
  79.8864       262
  79.9059       254
  79.9253       227
  79.9448       245
  79.9642       229
  79.9836       249
  80.0031       251
