  10.0000       154
  10.0194       183
  10.0389       204
  10.0583       171
  10.0778       174
  10.0972       184
  10.1166       177
  10.1361       177
  10.1555       172
  10.1750       183
  10.1944       184
  10.2138       173
  10.2333       205
  10.2527       190
  10.2722       163
  10.2916       189
  10.3110       183
  10.3305       193
  10.3499       193
  10.3694       180
  10.3888       197
  10.4082       208
  10.4277       170
  10.4471       197
  10.4666       198
  10.4860       183
  10.5054       167
  10.5249       213
  10.5443       182
  10.5638       181
  10.5832       161
  10.6026       200
  10.6221       168
  10.6415       200
  10.6610       166
  10.6804       179
  10.6998       191
  10.7193       183
  10.7387       207
  10.7582       164
  10.7776       188
  10.7970       199
  10.8165       159
  10.8359       192
  10.8554       182
  10.8748       193
  10.8942       183
  10.9137       179
  10.9331       208
  10.9526       182
  10.9720       223
  10.9914       189
  11.0109       187
  11.0303       187
  11.0498       199
  11.0692       185
  11.0886       196
  11.1081       188
  11.1275       179
  11.1470       180
  11.1664       191
  11.1858       164
  11.2053       189
  11.2247       192
  11.2442       192
  11.2636       185
  11.2830       199
  11.3025       208
  11.3219       194
  11.3414       202
  11.3608       179
  11.3802       188
  11.3997       199
  11.4191       174
  11.4386       203
  11.4580       168
  11.4774       187
  11.4969       174
  11.5163       213
  11.5358       202
  11.5552       221
  11.5746       209
  11.5941       196
  11.6135       185
  11.6330       193
  11.6524       196
  11.6718       190
  11.6913       189
  11.7107       208
  11.7302       181
  11.7496       209
  11.7690       181
  11.7885       207
  11.8079       183
  11.8274       182
  11.8468       194
  11.8662       202
  11.8857       194
  11.9051       218
  11.9246       175
  11.9440       204
  11.9634       197
  11.9829       177
  12.0023       213
  12.0217       173
  12.0412       199
  12.0606       201
  12.0801       217
  12.0995       184
  12.1189       196
  12.1384       193
  12.1578       200
  12.1773       202
  12.1967       202
  12.2161       182
  12.2356       223
  12.2550       201
  12.2745       195
  12.2939       208
  12.3133       207
  12.3328       211
  12.3522       176
  12.3717       208
  12.3911       192
  12.4105       213
  12.4300       197
  12.4494       201
  12.4689       176
  12.4883       177
  12.5077       205
  12.5272       192
  12.5466       202
  12.5661       193
  12.5855       175
  12.6049       213
  12.6244       215
  12.6438       191
  12.6633       229
  12.6827       212
  12.7021       228
  12.7216       209
  12.7410       230
  12.7605       209
  12.7799       200
  12.7993       215
  12.8188       202
  12.8382       181
  12.8577       211
  12.8771       205
  12.8965       200
  12.9160       193
  12.9354       228
  12.9549       189
  12.9743       207
  12.9937       199
  13.0132       213
  13.0326       218
  13.0521       205
  13.0715       205
  13.0909       208
  13.1104       200
  13.1298       215
  13.1493       203
  13.1687       205
  13.1881       210
  13.2076       202
  13.2270       202
  13.2465       177
  13.2659       222
  13.2853       211
  13.3048       212
  13.3242       194
  13.3437       188
  13.3631       234
  13.3825       218
  13.4020       198
  13.4214       227
  13.4409       216
  13.4603       208
  13.4797       206
  13.4992       181
  13.5186       211
  13.5381       212
  13.5575       190
  13.5769       207
  13.5964       208
  13.6158       200
  13.6353       208
  13.6547       201
  13.6741       222
  13.6936       233
  13.7130       244
  13.7325       227
  13.7519       213
  13.7713       231
  13.7908       200
  13.8102       198
  13.8297       224
  13.8491       203
  13.8685       212
  13.8880       223
  13.9074       208
  13.9269       220
  13.9463       204
  13.9657       217
  13.9852       236
  14.0046       229
  14.0241       220
  14.0435       199
  14.0629       239
  14.0824       267
  14.1018       210
  14.1213       215
  14.1407       225
  14.1601       225
  14.1796       253
  14.1990       221
  14.2185       191
  14.2379       219
  14.2573       221
  14.2768       212
  14.2962       233
  14.3157       207
  14.3351       212
  14.3545       223
  14.3740       193
  14.3934       210
  14.4129       220
  14.4323       230
  14.4517       243
  14.4712       233
  14.4906       218
  14.5101       212
  14.5295       221
  14.5489       236
  14.5684       221
  14.5878       207
  14.6073       217
  14.6267       206
  14.6461       230
  14.6656       233
  14.6850       235
  14.7045       215
  14.7239       229
  14.7433       232
  14.7628       232
  14.7822       254
  14.8017       205
  14.8211       215
  14.8405       218
  14.8600       247
  14.8794       223
  14.8989       222
  14.9183       211
  14.9377       247
  14.9572       232
  14.9766       215
  14.9961       239
  15.0155       206
  15.0349       218
  15.0544       230
  15.0738       233
  15.0933       256
  15.1127       240
  15.1321       222
  15.1516       262
  15.1710       212
  15.1905       229
  15.2099       205
  15.2293       245
  15.2488       219
  15.2682       216
  15.2877       252
  15.3071       256
  15.3265       218
  15.3460       252
  15.3654       243
  15.3849       236
  15.4043       243
  15.4237       241
  15.4432       246
  15.4626       217
  15.4821       246
  15.5015       215
  15.5209       226
  15.5404       240
  15.5598       231
  15.5793       213
  15.5987       243
  15.6181       244
  15.6376       211
  15.6570       263
  15.6765       242
  15.6959       251
  15.7153       248
  15.7348       249
  15.7542       225
  15.7737       239
  15.7931       233
  15.8125       245
  15.8320       243
  15.8514       244
  15.8708       212
  15.8903       245
  15.9097       232
  15.9292       218
  15.9486       220
  15.9680       243
  15.9875       233
  16.0069       260
  16.0264       254
  16.0458       231
  16.0652       209
  16.0847       217
  16.1041       230
  16.1236       262
  16.1430       258
  16.1624       251
  16.1819       260
  16.2013       272
  16.2208       221
  16.2402       253
  16.2596       234
  16.2791       243
  16.2985       240
  16.3180       254
  16.3374       264
  16.3568       246
  16.3763       267
  16.3957       259
  16.4152       246
  16.4346       250
  16.4540       267
  16.4735       260
  16.4929       231
  16.5124       265
  16.5318       244
  16.5512       257
  16.5707       237
  16.5901       254
  16.6096       236
  16.6290       254
  16.6484       247
  16.6679       242
  16.6873       259
  16.7068       267
  16.7262       245
  16.7456       294
  16.7651       325
  16.7845       281
  16.8040       294
  16.8234       280
  16.8428       337
  16.8623       286
  16.8817       256
  16.9012       251
  16.9206       269
  16.9400       279
  16.9595       259
  16.9789       255
  16.9984       276
  17.0178       249
  17.0372       256
  17.0567       269
  17.0761       271
  17.0956       245
  17.1150       239
  17.1344       229
  17.1539       264
  17.1733       265
  17.1928       251
  17.2122       253
  17.2316       242
  17.2511       226
  17.2705       236
  17.2900       268
  17.3094       273
  17.3288       233
  17.3483       295
  17.3677       273
  17.3872       270
  17.4066       268
  17.4260       252
  17.4455       261
  17.4649       234
  17.4844       275
  17.5038       277
  17.5232       258
  17.5427       269
  17.5621       269
  17.5816       262
  17.6010       270
  17.6204       289
  17.6399       254
  17.6593       275
  17.6788       254
  17.6982       234
  17.7176       282
  17.7371       269
  17.7565       265
  17.7760       269
  17.7954       252
  17.8148       259
  17.8343       256
  17.8537       291
  17.8732       277
  17.8926       264
  17.9120       270
  17.9315       250
  17.9509       274
  17.9704       276
  17.9898       276
  18.0092       246
  18.0287       265
  18.0481       281
  18.0676       270
  18.0870       285
  18.1064       252
  18.1259       265
  18.1453       271
  18.1648       248
  18.1842       278
  18.2036       256
  18.2231       273
  18.2425       255
  18.2620       274
  18.2814       258
  18.3008       294
  18.3203       253
  18.3397       283
  18.3592       274
  18.3786       282
  18.3980       240
  18.4175       274
  18.4369       302
  18.4564       281
  18.4758       248
  18.4952       264
  18.5147       242
  18.5341       261
  18.5536       297
  18.5730       280
  18.5924       266
  18.6119       290
  18.6313       284
  18.6508       293
  18.6702       270
  18.6896       292
  18.7091       265
  18.7285       267
  18.7480       288
  18.7674       277
  18.7868       269
  18.8063       267
  18.8257       263
  18.8452       268
  18.8646       262
  18.8840       260
  18.9035       270
  18.9229       271
  18.9424       287
  18.9618       290
  18.9812       289
  19.0007       291
  19.0201       249
  19.0396       284
  19.0590       275
  19.0784       267
  19.0979       262
  19.1173       280
  19.1368       277
  19.1562       305
  19.1756       277
  19.1951       285
  19.2145       273
  19.2340       303
  19.2534       311
  19.2728       312
  19.2923       296
  19.3117       256
  19.3312       293
  19.3506       256
  19.3700       248
  19.3895       270
  19.4089       261
  19.4284       298
  19.4478       306
  19.4672       291
  19.4867       308
  19.5061       270
  19.5256       276
  19.5450       295
  19.5644       298
  19.5839       288
  19.6033       297
  19.6228       283
  19.6422       280
  19.6616       337
  19.6811       258
  19.7005       309
  19.7199       269
  19.7394       261
  19.7588       309
  19.7783       313
  19.7977       293
  19.8171       287
  19.8366       302
  19.8560       286
  19.8755       314
  19.8949       287
  19.9143       311
  19.9338       278
  19.9532       282
  19.9727       295
  19.9921       319
  20.0115       285
  20.0310       317
  20.0504       296
  20.0699       288
  20.0893       294
  20.1087       294
  20.1282       295
  20.1476       275
  20.1671       286
  20.1865       284
  20.2059       309
  20.2254       292
  20.2448       317
  20.2643       297
  20.2837       296
  20.3031       321
  20.3226       299
  20.3420       316
  20.3615       304
  20.3809       301
  20.4003       299
  20.4198       289
  20.4392       315
  20.4587       320
  20.4781       283
  20.4975       302
  20.5170       319
  20.5364       280
  20.5559       301
  20.5753       286
  20.5947       284
  20.6142       290
  20.6336       294
  20.6531       315
  20.6725       299
  20.6919       317
  20.7114       315
  20.7308       310
  20.7503       280
  20.7697       305
  20.7891       302
  20.8086       323
  20.8280       317
  20.8475       285
  20.8669       331
  20.8863       306
  20.9058       291
  20.9252       314
  20.9447       286
  20.9641       297
  20.9835       293
  21.0030       302
  21.0224       311
  21.0419       287
  21.0613       335
  21.0807       343
  21.1002       273
  21.1196       318
  21.1391       298
  21.1585       313
  21.1779       306
  21.1974       300
  21.2168       284
  21.2363       305
  21.2557       314
  21.2751       311
  21.2946       328
  21.3140       307
  21.3335       295
  21.3529       302
  21.3723       341
  21.3918       320
  21.4112       302
  21.4307       303
  21.4501       358
  21.4695       334
  21.4890       324
  21.5084       290
  21.5279       351
  21.5473       344
  21.5667       341
  21.5862       284
  21.6056       319
  21.6251       325
  21.6445       286
  21.6639       345
  21.6834       350
  21.7028       348
  21.7223       324
  21.7417       351
  21.7611       347
  21.7806       334
  21.8000       329
  21.8195       338
  21.8389       321
  21.8583       307
  21.8778       323
  21.8972       338
  21.9167       360
  21.9361       324
  21.9555       319
  21.9750       330
  21.9944       325
  22.0139       324
  22.0333       344
  22.0527       346
  22.0722       349
  22.0916       343
  22.1111       324
  22.1305       344
  22.1499       295
  22.1694       312
  22.1888       334
  22.2083       339
  22.2277       318
  22.2471       335
  22.2666       334
  22.2860       318
  22.3055       331
  22.3249       332
  22.3443       345
  22.3638       351
  22.3832       352
  22.4027       311
  22.4221       317
  22.4415       331
  22.4610       354
  22.4804       343
  22.4999       328
  22.5193       312
  22.5387       341
  22.5582       346
  22.5776       352
  22.5971       348
  22.6165       303
  22.6359       332
  22.6554       317
  22.6748       343
  22.6943       330
  22.7137       329
  22.7331       326
  22.7526       313
  22.7720       319
  22.7915       327
  22.8109       344
  22.8303       366
  22.8498       308
  22.8692       319
  22.8887       349
  22.9081       306
  22.9275       372
  22.9470       345
  22.9664       355
  22.9859       327
  23.0053       359
  23.0247       381
  23.0442       340
  23.0636       339
  23.0831       331
  23.1025       346
  23.1219       378
  23.1414       351
  23.1608       332
  23.1803       332
  23.1997       316
  23.2191       350
  23.2386       319
  23.2580       351
  23.2775       359
  23.2969       310
  23.3163       286
  23.3358       366
  23.3552       325
  23.3747       354
  23.3941       383
  23.4135       351
  23.4330       339
  23.4524       323
  23.4719       367
  23.4913       331
  23.5107       360
  23.5302       338
  23.5496       304
  23.5691       339
  23.5885       324
  23.6079       314
  23.6274       359
  23.6468       376
  23.6662       357
  23.6857       344
  23.7051       326
  23.7246       356
  23.7440       384
  23.7634       383
  23.7829       331
  23.8023       309
  23.8218       352
  23.8412       365
  23.8606       347
  23.8801       360
  23.8995       343
  23.9190       341
  23.9384       342
  23.9578       334
  23.9773       353
  23.9967       316
  24.0162       347
  24.0356       323
  24.0550       358
  24.0745       326
  24.0939       339
  24.1134       336
  24.1328       351
  24.1522       368
  24.1717       349
  24.1911       334
  24.2106       339
  24.2300       381
  24.2494       336
  24.2689       339
  24.2883       317
  24.3078       367
  24.3272       375
  24.3466       356
  24.3661       345
  24.3855       354
  24.4050       383
  24.4244       356
  24.4438       356
  24.4633       356
  24.4827       338
  24.5022       367
  24.5216       368
  24.5410       337
  24.5605       338
  24.5799       360
  24.5994       357
  24.6188       324
  24.6382       324
  24.6577       336
  24.6771       348
  24.6966       375
  24.7160       319
  24.7354       367
  24.7549       337
  24.7743       394
  24.7938       350
  24.8132       350
  24.8326       378
  24.8521       367
  24.8715       339
  24.8910       371
  24.9104       371
  24.9298       321
  24.9493       372
  24.9687       376
  24.9882       373
  25.0076       348
  25.0270       366
  25.0465       376
  25.0659       381
  25.0854       357
  25.1048       355
  25.1242       390
  25.1437       371
  25.1631       395
  25.1826       364
  25.2020       377
  25.2214       350
  25.2409       330
  25.2603       398
  25.2798       338
  25.2992       362
  25.3186       368
  25.3381       351
  25.3575       369
  25.3770       363
  25.3964       343
  25.4158       410
  25.4353       341
  25.4547       340
  25.4742       390
  25.4936       356
  25.5130       389
  25.5325       396
  25.5519       377
  25.5714       375
  25.5908       338
  25.6102       356
  25.6297       367
  25.6491       351
  25.6686       380
  25.6880       348
  25.7074       349
  25.7269       355
  25.7463       351
  25.7658       365
  25.7852       379
  25.8046       335
  25.8241       364
  25.8435       366
  25.8630       369
  25.8824       330
  25.9018       342
  25.9213       340
  25.9407       368
  25.9602       345
  25.9796       338
  25.9990       343
  26.0185       380
  26.0379       347
  26.0574       361
  26.0768       363
  26.0962       370
  26.1157       364
  26.1351       383
  26.1546       368
  26.1740       356
  26.1934       379
  26.2129       379
  26.2323       376
  26.2518       359
  26.2712       407
  26.2906       353
  26.3101       386
  26.3295       365
  26.3490       365
  26.3684       351
  26.3878       417
  26.4073       351
  26.4267       372
  26.4462       392
  26.4656       352
  26.4850       351
  26.5045       376
  26.5239       350
  26.5434       336
  26.5628       350
  26.5822       392
  26.6017       396
  26.6211       395
  26.6406       367
  26.6600       344
  26.6794       382
  26.6989       357
  26.7183       368
  26.7378       347
  26.7572       377
  26.7766       371
  26.7961       427
  26.8155       370
  26.8350       371
  26.8544       373
  26.8738       350
  26.8933       397
  26.9127       401
  26.9322       388
  26.9516       365
  26.9710       380
  26.9905       359
  27.0099       372
  27.0294       389
  27.0488       396
  27.0682       396
  27.0877       380
  27.1071       330
  27.1266       373
  27.1460       411
  27.1654       321
  27.1849       381
  27.2043       351
  27.2238       391
  27.2432       356
  27.2626       382
  27.2821       348
  27.3015       424
  27.3210       381
  27.3404       361
  27.3598       358
  27.3793       377
  27.3987       371
  27.4182       410
  27.4376       384
  27.4570       378
  27.4765       355
  27.4959       399
  27.5153       410
  27.5348       379
  27.5542       361
  27.5737       374
  27.5931       400
  27.6125       373
  27.6320       407
  27.6514       355
  27.6709       399
  27.6903       367
  27.7097       388
  27.7292       371
  27.7486       356
  27.7681       383
  27.7875       368
  27.8069       409
  27.8264       378
  27.8458       388
  27.8653       373
  27.8847       389
  27.9041       338
  27.9236       355
  27.9430       390
  27.9625       397
  27.9819       363
  28.0013       394
  28.0208       379
  28.0402       375
  28.0597       367
  28.0791       394
  28.0985       395
  28.1180       380
  28.1374       410
  28.1569       379
  28.1763       360
  28.1957       348
  28.2152       388
  28.2346       419
  28.2541       405
  28.2735       388
  28.2929       407
  28.3124       433
  28.3318       365
  28.3513       379
  28.3707       368
  28.3901       380
  28.4096       348
  28.4290       346
  28.4485       393
  28.4679       402
  28.4873       367
  28.5068       393
  28.5262       360
  28.5457       385
  28.5651       362
  28.5845       389
  28.6040       390
  28.6234       368
  28.6429       374
  28.6623       399
  28.6817       391
  28.7012       350
  28.7206       401
  28.7401       387
  28.7595       393
  28.7789       404
  28.7984       381
  28.8178       396
  28.8373       405
  28.8567       386
  28.8761       402
  28.8956       392
  28.9150       385
  28.9345       381
  28.9539       362
  28.9733       375
  28.9928       389
  29.0122       371
  29.0317       400
  29.0511       397
  29.0705       376
  29.0900       387
  29.1094       404
  29.1289       425
  29.1483       347
  29.1677       364
  29.1872       390
  29.2066       373
  29.2261       388
  29.2455       407
  29.2649       404
  29.2844       392
  29.3038       396
  29.3233       391
  29.3427       385
  29.3621       383
  29.3816       439
  29.4010       362
  29.4205       357
  29.4399       409
  29.4593       399
  29.4788       430
  29.4982       430
  29.5177       401
  29.5371       463
  29.5565       492
  29.5760       482
  29.5954       489
  29.6149       532
  29.6343       492
  29.6537       524
  29.6732       602
  29.6926       582
  29.7121       583
  29.7315       584
  29.7509       601
  29.7704       574
  29.7898       514
  29.8093       594
  29.8287       522
  29.8481       525
  29.8676       561
  29.8870       539
  29.9065       544
  29.9259       516
  29.9453       434
  29.9648       437
  29.9842       492
  30.0037       432
  30.0231       436
  30.0425       416
  30.0620       396
  30.0814       400
  30.1009       428
  30.1203       414
  30.1397       434
  30.1592       403
  30.1786       407
  30.1981       426
  30.2175       422
  30.2369       433
  30.2564       416
  30.2758       376
  30.2953       382
  30.3147       390
  30.3341       394
  30.3536       382
  30.3730       391
  30.3925       401
  30.4119       410
  30.4313       392
  30.4508       393
  30.4702       403
  30.4897       424
  30.5091       422
  30.5285       405
  30.5480       394
  30.5674       394
  30.5869       410
  30.6063       415
  30.6257       403
  30.6452       371
  30.6646       381
  30.6841       410
  30.7035       396
  30.7229       429
  30.7424       407
  30.7618       398
  30.7813       392
  30.8007       396
  30.8201       386
  30.8396       400
  30.8590       430
  30.8785       417
  30.8979       399
  30.9173       378
  30.9368       417
  30.9562       422
  30.9757       400
  30.9951       394
  31.0145       376
  31.0340       379
  31.0534       438
  31.0729       374
  31.0923       426
  31.1117       386
  31.1312       390
  31.1506       373
  31.1701       406
  31.1895       419
  31.2089       429
  31.2284       431
  31.2478       427
  31.2673       373
  31.2867       418
  31.3061       413
  31.3256       394
  31.3450       443
  31.3645       405
  31.3839       443
  31.4033       403
  31.4228       371
  31.4422       391
  31.4616       395
  31.4811       439
  31.5005       422
  31.5200       393
  31.5394       408
  31.5588       439
  31.5783       410
  31.5977       416
  31.6172       409
  31.6366       450
  31.6560       419
  31.6755       379
  31.6949       399
  31.7144       457
  31.7338       395
  31.7532       372
  31.7727       377
  31.7921       404
  31.8116       364
  31.8310       404
  31.8504       422
  31.8699       424
  31.8893       387
  31.9088       410
  31.9282       378
  31.9476       424
  31.9671       391
  31.9865       422
  32.0060       414
  32.0254       433
  32.0448       410
  32.0643       451
  32.0837       397
  32.1032       412
  32.1226       403
  32.1420       392
  32.1615       415
  32.1809       395
  32.2004       385
  32.2198       399
  32.2392       372
  32.2587       439
  32.2781       425
  32.2976       358
  32.3170       442
  32.3364       394
  32.3559       411
  32.3753       426
  32.3948       357
  32.4142       417
  32.4336       428
  32.4531       402
  32.4725       422
  32.4920       395
  32.5114       396
  32.5308       426
  32.5503       418
  32.5697       436
  32.5892       448
  32.6086       387
  32.6280       370
  32.6475       440
  32.6669       397
  32.6864       433
  32.7058       427
  32.7252       428
  32.7447       423
  32.7641       398
  32.7836       417
  32.8030       408
  32.8224       390
  32.8419       405
  32.8613       415
  32.8808       409
  32.9002       410
  32.9196       421
  32.9391       437
  32.9585       432
  32.9780       442
  32.9974       445
  33.0168       416
  33.0363       411
  33.0557       460
  33.0752       413
  33.0946       396
  33.1140       384
  33.1335       396
  33.1529       440
  33.1724       408
  33.1918       431
  33.2112       402
  33.2307       459
  33.2501       408
  33.2696       425
  33.2890       407
  33.3084       410
  33.3279       419
  33.3473       409
  33.3668       410
  33.3862       392
  33.4056       417
  33.4251       381
  33.4445       461
  33.4640       423
  33.4834       424
  33.5028       411
  33.5223       436
  33.5417       410
  33.5612       399
  33.5806       412
  33.6000       442
  33.6195       413
  33.6389       405
  33.6584       430
  33.6778       423
  33.6972       463
  33.7167       416
  33.7361       421
  33.7556       474
  33.7750       415
  33.7944       415
  33.8139       404
  33.8333       429
  33.8528       449
  33.8722       409
  33.8916       413
  33.9111       434
  33.9305       442
  33.9500       393
  33.9694       454
  33.9888       405
  34.0083       422
  34.0277       377
  34.0472       434
  34.0666       397
  34.0860       414
  34.1055       445
  34.1249       421
  34.1444       426
  34.1638       398
  34.1832       434
  34.2027       420
  34.2221       437
  34.2416       451
  34.2610       443
  34.2804       436
  34.2999       371
  34.3193       426
  34.3388       422
  34.3582       416
  34.3776       426
  34.3971       391
  34.4165       417
  34.4360       405
  34.4554       443
  34.4748       467
  34.4943       411
  34.5137       417
  34.5332       425
  34.5526       426
  34.5720       467
  34.5915       410
  34.6109       440
  34.6304       423
  34.6498       438
  34.6692       423
  34.6887       400
  34.7081       433
  34.7276       421
  34.7470       442
  34.7664       436
  34.7859       430
  34.8053       423
  34.8248       380
  34.8442       416
  34.8636       442
  34.8831       443
  34.9025       408
  34.9220       436
  34.9414       409
  34.9608       406
  34.9803       404
  34.9997       423
  35.0192       377
  35.0386       437
  35.0580       438
  35.0775       394
  35.0969       442
  35.1164       436
  35.1358       439
  35.1552       437
  35.1747       402
  35.1941       402
  35.2136       410
  35.2330       442
  35.2524       416
  35.2719       430
  35.2913       431
  35.3107       422
  35.3302       428
  35.3496       451
  35.3691       468
  35.3885       466
  35.4079       428
  35.4274       490
  35.4468       431
  35.4663       426
  35.4857       438
  35.5051       442
  35.5246       432
  35.5440       428
  35.5635       448
  35.5829       465
  35.6023       460
  35.6218       450
  35.6412       451
  35.6607       454
  35.6801       436
  35.6995       440
  35.7190       465
  35.7384       460
  35.7579       452
  35.7773       460
  35.7967       439
  35.8162       477
  35.8356       436
  35.8551       435
  35.8745       444
  35.8939       448
  35.9134       416
  35.9328       450
  35.9523       432
  35.9717       442
  35.9911       477
  36.0106       469
  36.0300       486
  36.0495       462
  36.0689       461
  36.0883       489
  36.1078       447
  36.1272       495
  36.1467       479
  36.1661       490
  36.1855       480
  36.2050       483
  36.2244       536
  36.2439       540
  36.2633       515
  36.2827       572
  36.3022       634
  36.3216       690
  36.3411       772
  36.3605       821
  36.3799       999
  36.3994      1104
  36.4188      1281
  36.4383      1389
  36.4577      1584
  36.4771      1716
  36.4966      1918
  36.5160      2050
  36.5355      2099
  36.5549      2207
  36.5743      2228
  36.5938      2281
  36.6132      2270
  36.6327      2311
  36.6521      2202
  36.6715      2103
  36.6910      2038
  36.7104      1935
  36.7299      1850
  36.7493      1731
  36.7687      1632
  36.7882      1502
  36.8076      1356
  36.8271      1327
  36.8465      1144
  36.8659      1096
  36.8854      1004
  36.9048       825
  36.9243       844
  36.9437       755
  36.9631       694
  36.9826       635
  37.0020       589
  37.0215       545
  37.0409       515
  37.0603       563
  37.0798       499
  37.0992       524
  37.1187       479
  37.1381       482
  37.1575       490
  37.1770       509
  37.1964       486
  37.2159       481
  37.2353       472
  37.2547       456
  37.2742       499
  37.2936       442
  37.3131       425
  37.3325       451
  37.3519       447
  37.3714       444
  37.3908       450
  37.4103       479
  37.4297       462
  37.4491       448
  37.4686       445
  37.4880       515
  37.5075       471
  37.5269       460
  37.5463       437
  37.5658       433
  37.5852       435
  37.6047       452
  37.6241       451
  37.6435       446
  37.6630       470
  37.6824       452
  37.7019       475
  37.7213       433
  37.7407       483
  37.7602       421
  37.7796       462
  37.7991       423
  37.8185       481
  37.8379       479
  37.8574       442
  37.8768       460
  37.8963       432
  37.9157       460
  37.9351       504
  37.9546       416
  37.9740       478
  37.9935       467
  38.0129       490
  38.0323       489
  38.0518       465
  38.0712       464
  38.0907       414
  38.1101       411
  38.1295       466
  38.1490       414
  38.1684       434
  38.1879       427
  38.2073       454
  38.2267       434
  38.2462       447
  38.2656       438
  38.2851       458
  38.3045       492
  38.3239       441
  38.3434       461
  38.3628       456
  38.3823       422
  38.4017       445
  38.4211       405
  38.4406       418
  38.4600       450
  38.4795       463
  38.4989       401
  38.5183       437
  38.5378       463
  38.5572       416
  38.5767       452
  38.5961       460
  38.6155       477
  38.6350       456
  38.6544       462
  38.6739       460
  38.6933       406
  38.7127       428
  38.7322       412
  38.7516       502
  38.7711       472
  38.7905       469
  38.8099       396
  38.8294       446
  38.8488       432
  38.8683       474
  38.8877       463
  38.9071       426
  38.9266       485
  38.9460       433
  38.9655       493
  38.9849       419
  39.0043       468
  39.0238       484
  39.0432       499
  39.0627       442
  39.0821       428
  39.1015       408
  39.1210       474
  39.1404       463
  39.1598       453
  39.1793       454
  39.1987       459
  39.2182       443
  39.2376       457
  39.2570       449
  39.2765       456
  39.2959       405
  39.3154       449
  39.3348       451
  39.3542       458
  39.3737       454
  39.3931       453
  39.4126       456
  39.4320       480
  39.4514       437
  39.4709       461
  39.4903       441
  39.5098       446
  39.5292       455
  39.5486       462
  39.5681       441
  39.5875       470
  39.6070       452
  39.6264       417
  39.6458       482
  39.6653       413
  39.6847       458
  39.7042       452
  39.7236       424
  39.7430       430
  39.7625       393
  39.7819       455
  39.8014       441
  39.8208       467
  39.8402       416
  39.8597       461
  39.8791       462
  39.8986       437
  39.9180       485
  39.9374       481
  39.9569       436
  39.9763       427
  39.9958       437
  40.0152       431
  40.0346       475
  40.0541       420
  40.0735       452
  40.0930       458
  40.1124       448
  40.1318       440
  40.1513       492
  40.1707       480
  40.1902       441
  40.2096       430
  40.2290       411
  40.2485       485
  40.2679       460
  40.2874       432
  40.3068       464
  40.3262       485
  40.3457       439
  40.3651       458
  40.3846       485
  40.4040       436
  40.4234       451
  40.4429       471
  40.4623       444
  40.4818       451
  40.5012       439
  40.5206       437
  40.5401       461
  40.5595       428
  40.5790       458
  40.5984       443
  40.6178       463
  40.6373       445
  40.6567       473
  40.6762       466
  40.6956       478
  40.7150       472
  40.7345       435
  40.7539       495
  40.7734       427
  40.7928       441
  40.8122       439
  40.8317       429
  40.8511       467
  40.8706       432
  40.8900       435
  40.9094       461
  40.9289       499
  40.9483       434
  40.9678       407
  40.9872       463
  41.0066       416
  41.0261       468
  41.0455       413
  41.0650       501
  41.0844       440
  41.1038       471
  41.1233       441
  41.1427       493
  41.1622       457
  41.1816       456
  41.2010       464
  41.2205       457
  41.2399       443
  41.2594       453
  41.2788       467
  41.2982       459
  41.3177       413
  41.3371       454
  41.3566       446
  41.3760       424
  41.3954       460
  41.4149       472
  41.4343       468
  41.4538       444
  41.4732       458
  41.4926       457
  41.5121       465
  41.5315       486
  41.5510       433
  41.5704       479
  41.5898       453
  41.6093       483
  41.6287       489
  41.6482       476
  41.6676       459
  41.6870       478
  41.7065       452
  41.7259       462
  41.7454       438
  41.7648       456
  41.7842       483
  41.8037       466
  41.8231       494
  41.8426       479
  41.8620       477
  41.8814       469
  41.9009       474
  41.9203       492
  41.9398       441
  41.9592       466
  41.9786       461
  41.9981       495
  42.0175       484
  42.0370       499
  42.0564       478
  42.0758       503
  42.0953       527
  42.1147       559
  42.1342       527
  42.1536       585
  42.1730       587
  42.1925       514
  42.2119       544
  42.2314       595
  42.2508       587
  42.2702       586
  42.2897       616
  42.3091       603
  42.3286       636
  42.3480       640
  42.3674       652
  42.3869       652
  42.4063       663
  42.4258       672
  42.4452       686
  42.4646       734
  42.4841       721
  42.5035       660
  42.5230       692
  42.5424       653
  42.5618       654
  42.5813       642
  42.6007       642
  42.6202       632
  42.6396       620
  42.6590       644
  42.6785       615
  42.6979       608
  42.7174       584
  42.7368       523
  42.7562       533
  42.7757       559
  42.7951       555
  42.8146       534
  42.8340       540
  42.8534       494
  42.8729       511
  42.8923       505
  42.9118       502
  42.9312       498
  42.9506       483
  42.9701       484
  42.9895       489
  43.0090       456
  43.0284       467
  43.0478       483
  43.0673       464
  43.0867       470
  43.1061       539
  43.1256       478
  43.1450       486
  43.1645       430
  43.1839       496
  43.2033       472
  43.2228       490
  43.2422       495
  43.2617       521
  43.2811       528
  43.3005       517
  43.3200       478
  43.3394       531
  43.3589       483
  43.3783       506
  43.3977       485
  43.4172       535
  43.4366       499
  43.4561       533
  43.4755       559
  43.4949       565
  43.5144       651
  43.5338       893
  43.5533      1187
  43.5727      1444
  43.5921      1295
  43.6116      1539
  43.6310      1672
  43.6505      1761
  43.6699      2001
  43.6893      2156
  43.7088      2245
  43.7282      2308
  43.7477      2153
  43.7671      2034
  43.7865      1880
  43.8060      1904
  43.8254      1753
  43.8449      1321
  43.8643      1209
  43.8837      1010
  43.9032       996
  43.9226       920
  43.9421       759
  43.9615       630
  43.9809       596
  44.0004       567
  44.0198       528
  44.0393       507
  44.0587       556
  44.0781       518
  44.0976       479
  44.1170       504
  44.1365       490
  44.1559       455
  44.1753       496
  44.1948       471
  44.2142       490
  44.2337       533
  44.2531       515
  44.2725       467
  44.2920       471
  44.3114       466
  44.3309       489
  44.3503       466
  44.3697       429
  44.3892       493
  44.4086       495
  44.4281       478
  44.4475       516
  44.4669       435
  44.4864       491
  44.5058       502
  44.5253       501
  44.5447       497
  44.5641       468
  44.5836       482
  44.6030       471
  44.6225       441
  44.6419       484
  44.6613       548
  44.6808       504
  44.7002       499
  44.7197       497
  44.7391       489
  44.7585       494
  44.7780       480
  44.7974       489
  44.8169       498
  44.8363       451
  44.8557       483
  44.8752       481
  44.8946       502
  44.9141       502
  44.9335       466
  44.9529       481
  44.9724       494
  44.9918       452
  45.0113       479
  45.0307       470
  45.0501       447
  45.0696       425
  45.0890       451
  45.1085       506
  45.1279       464
  45.1473       491
  45.1668       518
  45.1862       452
  45.2057       469
  45.2251       473
  45.2445       493
  45.2640       503
  45.2834       463
  45.3029       464
  45.3223       478
  45.3417       457
  45.3612       475
  45.3806       462
  45.4001       459
  45.4195       496
  45.4389       476
  45.4584       479
  45.4778       448
  45.4973       448
  45.5167       473
  45.5361       480
  45.5556       481
  45.5750       458
  45.5945       484
  45.6139       474
  45.6333       495
  45.6528       472
  45.6722       511
  45.6917       473
  45.7111       454
  45.7305       459
  45.7500       445
  45.7694       488
  45.7889       485
  45.8083       502
  45.8277       453
  45.8472       471
  45.8666       475
  45.8861       459
  45.9055       502
  45.9249       481
  45.9444       483
  45.9638       467
  45.9833       491
  46.0027       458
  46.0221       441
  46.0416       463
  46.0610       466
  46.0805       468
  46.0999       468
  46.1193       476
  46.1388       491
  46.1582       451
  46.1777       440
  46.1971       489
  46.2165       489
  46.2360       439
  46.2554       485
  46.2749       468
  46.2943       432
  46.3137       495
  46.3332       459
  46.3526       497
  46.3721       509
  46.3915       461
  46.4109       500
  46.4304       565
  46.4498       503
  46.4693       490
  46.4887       471
  46.5081       471
  46.5276       463
  46.5470       457
  46.5665       466
  46.5859       505
  46.6053       438
  46.6248       508
  46.6442       470
  46.6637       462
  46.6831       482
  46.7025       465
  46.7220       447
  46.7414       505
  46.7609       469
  46.7803       462
  46.7997       449
  46.8192       462
  46.8386       468
  46.8581       486
  46.8775       462
  46.8969       459
  46.9164       484
  46.9358       506
  46.9552       468
  46.9747       477
  46.9941       423
  47.0136       448
  47.0330       441
  47.0524       496
  47.0719       487
  47.0913       475
  47.1108       481
  47.1302       512
  47.1496       474
  47.1691       480
  47.1885       451
  47.2080       479
  47.2274       487
  47.2468       466
  47.2663       517
  47.2857       440
  47.3052       473
  47.3246       486
  47.3440       468
  47.3635       454
  47.3829       478
  47.4024       488
  47.4218       511
  47.4412       451
  47.4607       502
  47.4801       471
  47.4996       462
  47.5190       465
  47.5384       479
  47.5579       464
  47.5773       471
  47.5968       447
  47.6162       469
  47.6356       444
  47.6551       487
  47.6745       439
  47.6940       475
  47.7134       449
  47.7328       502
  47.7523       503
  47.7717       475
  47.7912       482
  47.8106       463
  47.8300       499
  47.8495       483
  47.8689       475
  47.8884       459
  47.9078       489
  47.9272       473
  47.9467       478
  47.9661       481
  47.9856       497
  48.0050       489
  48.0244       457
  48.0439       512
  48.0633       476
  48.0828       509
  48.1022       460
  48.1216       493
  48.1411       471
  48.1605       490
  48.1800       455
  48.1994       490
  48.2188       469
  48.2383       470
  48.2577       443
  48.2772       427
  48.2966       438
  48.3160       472
  48.3355       476
  48.3549       497
  48.3744       504
  48.3938       448
  48.4132       463
  48.4327       497
  48.4521       515
  48.4716       486
  48.4910       516
  48.5104       424
  48.5299       479
  48.5493       474
  48.5688       499
  48.5882       491
  48.6076       484
  48.6271       487
  48.6465       509
  48.6660       495
  48.6854       440
  48.7048       494
  48.7243       484
  48.7437       430
  48.7632       460
  48.7826       471
  48.8020       483
  48.8215       464
  48.8409       509
  48.8604       440
  48.8798       472
  48.8992       472
  48.9187       451
  48.9381       516
  48.9576       505
  48.9770       493
  48.9964       438
  49.0159       475
  49.0353       485
  49.0548       460
  49.0742       446
  49.0936       460
  49.1131       457
  49.1325       461
  49.1520       482
  49.1714       462
  49.1908       479
  49.2103       491
  49.2297       528
  49.2492       486
  49.2686       494
  49.2880       485
  49.3075       437
  49.3269       486
  49.3464       498
  49.3658       492
  49.3852       466
  49.4047       500
  49.4241       481
  49.4436       475
  49.4630       484
  49.4824       472
  49.5019       442
  49.5213       454
  49.5408       480
  49.5602       470
  49.5796       488
  49.5991       493
  49.6185       523
  49.6380       451
  49.6574       484
  49.6768       522
  49.6963       550
  49.7157       524
  49.7352       480
  49.7546       464
  49.7740       469
  49.7935       428
  49.8129       466
  49.8324       504
  49.8518       532
  49.8712       480
  49.8907       464
  49.9101       481
  49.9296       452
  49.9490       512
  49.9684       487
  49.9879       506
  50.0073       446
  50.0268       476
  50.0462       486
  50.0656       456
  50.0851       498
  50.1045       492
  50.1240       499
  50.1434       512
  50.1628       500
  50.1823       519
  50.2017       494
  50.2212       441
  50.2406       485
  50.2600       454
  50.2795       489
  50.2989       498
  50.3184       506
  50.3378       470
  50.3572       460
  50.3767       472
  50.3961       506
  50.4156       509
  50.4350       495
  50.4544       474
  50.4739       533
  50.4933       487
  50.5128       503
  50.5322       473
  50.5516       503
  50.5711       512
  50.5905       521
  50.6100       537
  50.6294       549
  50.6488       609
  50.6683       649
  50.6877       731
  50.7072       935
  50.7266      1042
  50.7460       986
  50.7655      1002
  50.7849      1085
  50.8044      1222
  50.8238      1152
  50.8432      1273
  50.8627      1361
  50.8821      1410
  50.9015      1518
  50.9210      1326
  50.9404      1176
  50.9599      1006
  50.9793       929
  50.9987       880
  51.0182       927
  51.0376       858
  51.0571       738
  51.0765       718
  51.0959       654
  51.1154       621
  51.1348       568
  51.1543       531
  51.1737       503
  51.1931       518
  51.2126       526
  51.2320       546
  51.2515       494
  51.2709       508
  51.2903       499
  51.3098       483
  51.3292       455
  51.3487       487
  51.3681       459
  51.3875       451
  51.4070       469
  51.4264       477
  51.4459       492
  51.4653       503
  51.4847       523
  51.5042       481
  51.5236       520
  51.5431       491
  51.5625       486
  51.5819       516
  51.6014       460
  51.6208       452
  51.6403       482
  51.6597       506
  51.6791       495
  51.6986       479
  51.7180       450
  51.7375       546
  51.7569       458
  51.7763       495
  51.7958       496
  51.8152       464
  51.8347       462
  51.8541       533
  51.8735       498
  51.8930       478
  51.9124       483
  51.9319       501
  51.9513       503
  51.9707       460
  51.9902       506
  52.0096       485
  52.0291       481
  52.0485       451
  52.0679       478
  52.0874       446
  52.1068       496
  52.1263       480
  52.1457       525
  52.1651       475
  52.1846       455
  52.2040       538
  52.2235       538
  52.2429       502
  52.2623       477
  52.2818       495
  52.3012       475
  52.3207       512
  52.3401       514
  52.3595       471
  52.3790       500
  52.3984       504
  52.4179       452
  52.4373       503
  52.4567       524
  52.4762       495
  52.4956       467
  52.5151       521
  52.5345       533
  52.5539       491
  52.5734       512
  52.5928       558
  52.6123       510
  52.6317       519
  52.6511       481
  52.6706       453
  52.6900       479
  52.7095       506
  52.7289       522
  52.7483       477
  52.7678       529
  52.7872       491
  52.8067       460
  52.8261       504
  52.8455       523
  52.8650       526
  52.8844       507
  52.9039       512
  52.9233       508
  52.9427       462
  52.9622       464
  52.9816       510
  53.0011       472
  53.0205       485
  53.0399       461
  53.0594       497
  53.0788       462
  53.0983       481
  53.1177       530
  53.1371       523
  53.1566       492
  53.1760       503
  53.1955       529
  53.2149       516
  53.2343       468
  53.2538       476
  53.2732       473
  53.2927       515
  53.3121       462
  53.3315       480
  53.3510       514
  53.3704       485
  53.3899       521
  53.4093       495
  53.4287       529
  53.4482       495
  53.4676       505
  53.4871       492
  53.5065       497
  53.5259       464
  53.5454       490
  53.5648       478
  53.5843       504
  53.6037       497
  53.6231       492
  53.6426       461
  53.6620       479
  53.6815       482
  53.7009       514
  53.7203       446
  53.7398       463
  53.7592       485
  53.7787       530
  53.7981       485
  53.8175       476
  53.8370       542
  53.8564       505
  53.8759       498
  53.8953       498
  53.9147       490
  53.9342       470
  53.9536       487
  53.9731       472
  53.9925       485
  54.0119       513
  54.0314       483
  54.0508       463
  54.0703       473
  54.0897       484
  54.1091       474
  54.1286       462
  54.1480       449
  54.1675       478
  54.1869       460
  54.2063       501
  54.2258       480
  54.2452       502
  54.2647       480
  54.2841       478
  54.3035       507
  54.3230       507
  54.3424       524
  54.3619       510
  54.3813       513
  54.4007       496
  54.4202       492
  54.4396       461
  54.4591       502
  54.4785       479
  54.4979       495
  54.5174       493
  54.5368       478
  54.5563       488
  54.5757       498
  54.5951       481
  54.6146       492
  54.6340       498
  54.6535       498
  54.6729       479
  54.6923       495
  54.7118       450
  54.7312       504
  54.7506       506
  54.7701       506
  54.7895       482
  54.8090       491
  54.8284       458
  54.8478       479
  54.8673       496
  54.8867       523
  54.9062       473
  54.9256       487
  54.9450       505
  54.9645       523
  54.9839       483
  55.0034       475
  55.0228       498
  55.0422       499
  55.0617       499
  55.0811       483
  55.1006       473
  55.1200       503
  55.1394       488
  55.1589       510
  55.1783       506
  55.1978       505
  55.2172       484
  55.2366       528
  55.2561       501
  55.2755       465
  55.2950       507
  55.3144       491
  55.3338       507
  55.3533       467
  55.3727       510
  55.3922       472
  55.4116       465
  55.4310       516
  55.4505       457
  55.4699       466
  55.4894       470
  55.5088       470
  55.5282       481
  55.5477       515
  55.5671       515
  55.5866       466
  55.6060       493
  55.6254       479
  55.6449       482
  55.6643       465
  55.6838       492
  55.7032       475
  55.7226       518
  55.7421       514
  55.7615       521
  55.7810       476
  55.8004       499
  55.8198       515
  55.8393       496
  55.8587       497
  55.8782       496
  55.8976       504
  55.9170       472
  55.9365       534
  55.9559       492
  55.9754       450
  55.9948       475
  56.0142       501
  56.0337       494
  56.0531       489
  56.0726       480
  56.0920       482
  56.1114       506
  56.1309       538
  56.1503       504
  56.1698       452
  56.1892       497
  56.2086       478
  56.2281       534
  56.2475       527
  56.2670       488
  56.2864       476
  56.3058       498
  56.3253       500
  56.3447       502
  56.3642       499
  56.3836       472
  56.4030       484
  56.4225       501
  56.4419       502
  56.4614       478
  56.4808       512
  56.5002       479
  56.5197       502
  56.5391       488
  56.5586       477
  56.5780       481
  56.5974       520
  56.6169       488
  56.6363       483
  56.6558       478
  56.6752       512
  56.6946       476
  56.7141       488
  56.7335       515
  56.7530       502
  56.7724       494
  56.7918       503
  56.8113       478
  56.8307       444
  56.8502       450
  56.8696       524
  56.8890       482
  56.9085       463
  56.9279       501
  56.9474       518
  56.9668       497
  56.9862       462
  57.0057       491
  57.0251       489
  57.0446       486
  57.0640       470
  57.0834       486
  57.1029       478
  57.1223       480
  57.1418       526
  57.1612       552
  57.1806       491
  57.2001       487
  57.2195       469
  57.2390       534
  57.2584       525
  57.2778       492
  57.2973       506
  57.3167       507
  57.3362       541
  57.3556       513
  57.3750       461
  57.3945       487
  57.4139       469
  57.4334       505
  57.4528       500
  57.4722       473
  57.4917       467
  57.5111       483
  57.5306       504
  57.5500       479
  57.5694       507
  57.5889       479
  57.6083       493
  57.6278       501
  57.6472       507
  57.6666       491
  57.6861       508
  57.7055       497
  57.7250       528
  57.7444       485
  57.7638       502
  57.7833       501
  57.8027       470
  57.8222       503
  57.8416       493
  57.8610       479
  57.8805       522
  57.8999       511
  57.9194       474
  57.9388       501
  57.9582       508
  57.9777       520
  57.9971       469
  58.0166       517
  58.0360       467
  58.0554       505
  58.0749       483
  58.0943       490
  58.1138       489
  58.1332       490
  58.1526       533
  58.1721       505
  58.1915       533
  58.2110       496
  58.2304       494
  58.2498       492
  58.2693       490
  58.2887       520
  58.3082       504
  58.3276       553
  58.3470       504
  58.3665       508
  58.3859       479
  58.4054       532
  58.4248       504
  58.4442       510
  58.4637       485
  58.4831       487
  58.5026       505
  58.5220       533
  58.5414       506
  58.5609       524
  58.5803       502
  58.5998       508
  58.6192       518
  58.6386       547
  58.6581       455
  58.6775       509
  58.6969       508
  58.7164       473
  58.7358       519
  58.7553       488
  58.7747       466
  58.7941       468
  58.8136       470
  58.8330       525
  58.8525       509
  58.8719       472
  58.8913       505
  58.9108       553
  58.9302       503
  58.9497       502
  58.9691       487
  58.9885       511
  59.0080       476
  59.0274       505
  59.0469       523
  59.0663       486
  59.0857       516
  59.1052       503
  59.1246       485
  59.1441       486
  59.1635       477
  59.1829       558
  59.2024       477
  59.2218       487
  59.2413       470
  59.2607       499
  59.2801       476
  59.2996       524
  59.3190       492
  59.3385       495
  59.3579       518
  59.3773       513
  59.3968       512
  59.4162       540
  59.4357       527
  59.4551       494
  59.4745       501
  59.4940       552
  59.5134       481
  59.5329       494
  59.5523       512
  59.5717       518
  59.5912       504
  59.6106       523
  59.6301       474
  59.6495       521
  59.6689       501
  59.6884       508
  59.7078       485
  59.7273       485
  59.7467       504
  59.7661       525
  59.7856       511
  59.8050       477
  59.8245       531
  59.8439       520
  59.8633       483
  59.8828       499
  59.9022       467
  59.9217       484
  59.9411       486
  59.9605       481
  59.9800       488
  59.9994       462
  60.0189       492
  60.0383       503
  60.0577       471
  60.0772       494
  60.0966       530
  60.1161       486
  60.1355       502
  60.1549       524
  60.1744       502
  60.1938       500
  60.2133       500
  60.2327       501
  60.2521       517
  60.2716       517
  60.2910       486
  60.3105       475
  60.3299       523
  60.3493       517
  60.3688       512
  60.3882       496
  60.4077       531
  60.4271       488
  60.4465       499
  60.4660       503
  60.4854       549
  60.5049       500
  60.5243       506
  60.5437       508
  60.5632       494
  60.5826       497
  60.6021       520
  60.6215       523
  60.6409       488
  60.6604       546
  60.6798       547
  60.6993       509
  60.7187       465
  60.7381       541
  60.7576       547
  60.7770       519
  60.7965       541
  60.8159       537
  60.8353       589
  60.8548       552
  60.8742       599
  60.8937       552
  60.9131       600
  60.9325       638
  60.9520       643
  60.9714       652
  60.9909       669
  61.0103       700
  61.0297       702
  61.0492       757
  61.0686       736
  61.0881       766
  61.1075       818
  61.1269       828
  61.1464       813
  61.1658       864
  61.1853       868
  61.2047       868
  61.2241       840
  61.2436       914
  61.2630       910
  61.2825       893
  61.3019       899
  61.3213       877
  61.3408       844
  61.3602       875
  61.3797       899
  61.3991       840
  61.4185       855
  61.4380       871
  61.4574       829
  61.4769       815
  61.4963       829
  61.5157       759
  61.5352       759
  61.5546       804
  61.5741       696
  61.5935       736
  61.6129       769
  61.6324       710
  61.6518       717
  61.6713       672
  61.6907       711
  61.7101       692
  61.7296       677
  61.7490       668
  61.7685       632
  61.7879       652
  61.8073       600
  61.8268       616
  61.8462       604
  61.8657       587
  61.8851       622
  61.9045       567
  61.9240       577
  61.9434       560
  61.9629       580
  61.9823       559
  62.0017       557
  62.0212       527
  62.0406       598
  62.0601       533
  62.0795       555
  62.0989       498
  62.1184       471
  62.1378       485
  62.1573       485
  62.1767       529
  62.1961       512
  62.2156       506
  62.2350       530
  62.2545       526
  62.2739       539
  62.2933       548
  62.3128       538
  62.3322       516
  62.3517       508
  62.3711       531
  62.3905       528
  62.4100       545
  62.4294       476
  62.4489       535
  62.4683       497
  62.4877       520
  62.5072       491
  62.5266       532
  62.5460       521
  62.5655       516
  62.5849       501
  62.6044       556
  62.6238       492
  62.6432       529
  62.6627       494
  62.6821       516
  62.7016       521
  62.7210       484
  62.7404       505
  62.7599       535
  62.7793       495
  62.7988       522
  62.8182       505
  62.8376       484
  62.8571       500
  62.8765       501
  62.8960       524
  62.9154       516
  62.9348       525
  62.9543       495
  62.9737       515
  62.9932       505
  63.0126       550
  63.0320       498
  63.0515       502
  63.0709       501
  63.0904       542
  63.1098       513
  63.1292       524
  63.1487       553
  63.1681       510
  63.1876       480
  63.2070       509
  63.2264       554
  63.2459       519
  63.2653       533
  63.2848       470
  63.3042       487
  63.3236       495
  63.3431       506
  63.3625       491
  63.3820       542
  63.4014       551
  63.4208       498
  63.4403       498
  63.4597       521
  63.4792       539
  63.4986       515
  63.5180       514
  63.5375       503
  63.5569       480
  63.5764       476
  63.5958       566
  63.6152       506
  63.6347       512
  63.6541       517
  63.6736       503
  63.6930       514
  63.7124       524
  63.7319       494
  63.7513       503
  63.7708       535
  63.7902       520
  63.8096       516
  63.8291       497
  63.8485       472
  63.8680       489
  63.8874       488
  63.9068       526
  63.9263       489
  63.9457       520
  63.9652       494
  63.9846       494
  64.0040       507
  64.0235       517
  64.0429       542
  64.0624       482
  64.0818       485
  64.1012       490
  64.1207       504
  64.1401       511
  64.1596       490
  64.1790       528
  64.1984       483
  64.2179       529
  64.2373       470
  64.2568       512
  64.2762       552
  64.2956       508
  64.3151       541
  64.3345       490
  64.3540       497
  64.3734       507
  64.3928       519
  64.4123       489
  64.4317       569
  64.4512       514
  64.4706       510
  64.4900       546
  64.5095       513
  64.5289       478
  64.5484       513
  64.5678       504
  64.5872       523
  64.6067       479
  64.6261       517
  64.6456       559
  64.6650       530
  64.6844       490
  64.7039       482
  64.7233       498
  64.7428       515
  64.7622       505
  64.7816       482
  64.8011       489
  64.8205       488
  64.8400       510
  64.8594       524
  64.8788       513
  64.8983       500
  64.9177       517
  64.9372       498
  64.9566       505
  64.9760       496
  64.9955       551
  65.0149       503
  65.0344       490
  65.0538       498
  65.0732       488
  65.0927       483
  65.1121       538
  65.1316       525
  65.1510       539
  65.1704       533
  65.1899       514
  65.2093       517
  65.2288       478
  65.2482       552
  65.2676       510
  65.2871       526
  65.3065       526
  65.3260       514
  65.3454       535
  65.3648       520
  65.3843       520
  65.4037       510
  65.4232       540
  65.4426       493
  65.4620       486
  65.4815       514
  65.5009       511
  65.5204       537
  65.5398       483
  65.5592       523
  65.5787       526
  65.5981       513
  65.6176       531
  65.6370       480
  65.6564       477
  65.6759       517
  65.6953       522
  65.7148       468
  65.7342       469
  65.7536       504
  65.7731       484
  65.7925       503
  65.8120       538
  65.8314       558
  65.8508       512
  65.8703       537
  65.8897       513
  65.9092       512
  65.9286       542
  65.9480       495
  65.9675       490
  65.9869       519
  66.0064       497
  66.0258       526
  66.0452       498
  66.0647       475
  66.0841       551
  66.1036       514
  66.1230       528
  66.1424       510
  66.1619       507
  66.1813       495
  66.2008       495
  66.2202       466
  66.2396       537
  66.2591       500
  66.2785       495
  66.2980       522
  66.3174       500
  66.3368       532
  66.3563       478
  66.3757       507
  66.3951       525
  66.4146       498
  66.4340       540
  66.4535       517
  66.4729       490
  66.4923       530
  66.5118       509
  66.5312       501
  66.5507       483
  66.5701       529
  66.5895       483
  66.6090       493
  66.6284       503
  66.6479       516
  66.6673       497
  66.6867       526
  66.7062       510
  66.7256       505
  66.7451       537
  66.7645       528
  66.7839       492
  66.8034       485
  66.8228       501
  66.8423       494
  66.8617       515
  66.8811       534
  66.9006       484
  66.9200       518
  66.9395       494
  66.9589       504
  66.9783       531
  66.9978       485
  67.0172       505
  67.0367       497
  67.0561       516
  67.0755       534
  67.0950       510
  67.1144       497
  67.1339       473
  67.1533       518
  67.1727       520
  67.1922       525
  67.2116       544
  67.2311       495
  67.2505       536
  67.2699       505
  67.2894       495
  67.3088       489
  67.3283       521
  67.3477       485
  67.3671       489
  67.3866       534
  67.4060       500
  67.4255       517
  67.4449       519
  67.4643       507
  67.4838       556
  67.5032       494
  67.5227       517
  67.5421       498
  67.5615       505
  67.5810       495
  67.6004       490
  67.6199       515
  67.6393       480
  67.6587       543
  67.6782       543
  67.6976       515
  67.7171       509
  67.7365       546
  67.7559       487
  67.7754       507
  67.7948       453
  67.8143       488
  67.8337       499
  67.8531       468
  67.8726       499
  67.8920       517
  67.9115       544
  67.9309       524
  67.9503       530
  67.9698       535
  67.9892       503
  68.0087       546
  68.0281       521
  68.0475       574
  68.0670       474
  68.0864       489
  68.1059       513
  68.1253       521
  68.1447       526
  68.1642       524
  68.1836       517
  68.2031       513
  68.2225       505
  68.2419       538
  68.2614       505
  68.2808       527
  68.3003       510
  68.3197       522
  68.3391       494
  68.3586       480
  68.3780       503
  68.3975       539
  68.4169       507
  68.4363       512
  68.4558       560
  68.4752       523
  68.4947       486
  68.5141       505
  68.5335       477
  68.5530       522
  68.5724       499
  68.5919       509
  68.6113       512
  68.6307       549
  68.6502       514
  68.6696       554
  68.6891       496
  68.7085       526
  68.7279       495
  68.7474       523
  68.7668       511
  68.7863       528
  68.8057       527
  68.8251       498
  68.8446       498
  68.8640       517
  68.8835       459
  68.9029       514
  68.9223       506
  68.9418       487
  68.9612       541
  68.9807       532
  69.0001       511
  69.0195       536
  69.0390       520
  69.0584       533
  69.0779       507
  69.0973       509
  69.1167       519
  69.1362       542
  69.1556       507
  69.1751       536
  69.1945       532
  69.2139       485
  69.2334       495
  69.2528       523
  69.2723       502
  69.2917       526
  69.3111       530
  69.3306       510
  69.3500       527
  69.3695       505
  69.3889       533
  69.4083       487
  69.4278       476
  69.4472       492
  69.4667       510
  69.4861       537
  69.5055       485
  69.5250       515
  69.5444       521
  69.5639       521
  69.5833       500
  69.6027       502
  69.6222       517
  69.6416       513
  69.6611       527
  69.6805       567
  69.6999       503
  69.7194       507
  69.7388       500
  69.7583       484
  69.7777       550
  69.7971       512
  69.8166       531
  69.8360       528
  69.8555       511
  69.8749       528
  69.8943       482
  69.9138       510
  69.9332       527
  69.9527       553
  69.9721       494
  69.9915       535
  70.0110       555
  70.0304       519
  70.0499       504
  70.0693       529
  70.0887       545
  70.1082       518
  70.1276       529
  70.1471       470
  70.1665       547
  70.1859       521
  70.2054       528
  70.2248       561
  70.2443       529
  70.2637       540
  70.2831       551
  70.3026       524
  70.3220       529
  70.3414       527
  70.3609       548
  70.3803       537
  70.3998       541
  70.4192       525
  70.4386       461
  70.4581       520
  70.4775       509
  70.4970       490
  70.5164       524
  70.5358       542
  70.5553       498
  70.5747       513
  70.5942       544
  70.6136       494
  70.6330       504
  70.6525       515
  70.6719       563
  70.6914       491
  70.7108       488
  70.7302       532
  70.7497       511
  70.7691       523
  70.7886       553
  70.8080       537
  70.8274       552
  70.8469       512
  70.8663       548
  70.8858       525
  70.9052       568
  70.9246       545
  70.9441       511
  70.9635       535
  70.9830       511
  71.0024       540
  71.0218       556
  71.0413       490
  71.0607       503
  71.0802       520
  71.0996       501
  71.1190       463
  71.1385       530
  71.1579       539
  71.1774       566
  71.1968       500
  71.2162       492
  71.2357       482
  71.2551       579
  71.2746       540
  71.2940       505
  71.3134       499
  71.3329       510
  71.3523       540
  71.3718       542
  71.3912       517
  71.4106       516
  71.4301       504
  71.4495       513
  71.4690       509
  71.4884       535
  71.5078       463
  71.5273       525
  71.5467       471
  71.5662       523
  71.5856       527
  71.6050       511
  71.6245       485
  71.6439       540
  71.6634       554
  71.6828       553
  71.7022       484
  71.7217       504
  71.7411       484
  71.7606       509
  71.7800       559
  71.7994       544
  71.8189       510
  71.8383       509
  71.8578       526
  71.8772       533
  71.8966       593
  71.9161       548
  71.9355       586
  71.9550       487
  71.9744       529
  71.9938       529
  72.0133       525
  72.0327       526
  72.0522       515
  72.0716       506
  72.0910       498
  72.1105       518
  72.1299       522
  72.1494       520
  72.1688       511
  72.1882       529
  72.2077       541
  72.2271       534
  72.2466       547
  72.2660       549
  72.2854       465
  72.3049       542
  72.3243       508
  72.3438       516
  72.3632       532
  72.3826       493
  72.4021       483
  72.4215       560
  72.4410       526
  72.4604       510
  72.4798       504
  72.4993       543
  72.5187       527
  72.5382       576
  72.5576       520
  72.5770       524
  72.5965       557
  72.6159       526
  72.6354       512
  72.6548       516
  72.6742       503
  72.6937       529
  72.7131       586
  72.7326       529
  72.7520       525
  72.7714       563
  72.7909       538
  72.8103       578
  72.8298       602
  72.8492       558
  72.8686       545
  72.8881       555
  72.9075       594
  72.9270       544
  72.9464       605
  72.9658       582
  72.9853       599
  73.0047       603
  73.0242       623
  73.0436       599
  73.0630       612
  73.0825       594
  73.1019       651
  73.1214       636
  73.1408       622
  73.1602       620
  73.1797       626
  73.1991       600
  73.2186       628
  73.2380       658
  73.2574       619
  73.2769       637
  73.2963       625
  73.3158       622
  73.3352       666
  73.3546       626
  73.3741       643
  73.3935       623
  73.4130       686
  73.4324       673
  73.4518       632
  73.4713       627
  73.4907       616
  73.5102       608
  73.5296       636
  73.5490       623
  73.5685       602
  73.5879       644
  73.6074       605
  73.6268       652
  73.6462       589
  73.6657       655
  73.6851       612
  73.7046       609
  73.7240       591
  73.7434       584
  73.7629       599
  73.7823       592
  73.8018       575
  73.8212       575
  73.8406       552
  73.8601       602
  73.8795       580
  73.8990       600
  73.9184       561
  73.9378       563
  73.9573       589
  73.9767       594
  73.9962       532
  74.0156       584
  74.0350       599
  74.0545       583
  74.0739       583
  74.0934       585
  74.1128       560
  74.1322       547
  74.1517       578
  74.1711       590
  74.1905       590
  74.2100       604
  74.2294       561
  74.2489       603
  74.2683       659
  74.2877       637
  74.3072       670
  74.3266       710
  74.3461       814
  74.3655       934
  74.3849      1080
  74.4044      1382
  74.4238      1390
  74.4433      1501
  74.4627      1467
  74.4821      1541
  74.5016      1646
  74.5210      1712
  74.5405      1721
  74.5599      1821
  74.5793      1778
  74.5988      1703
  74.6182      1540
  74.6377      1378
  74.6571      1227
  74.6765      1166
  74.6960      1145
  74.7154      1186
  74.7349      1168
  74.7543      1085
  74.7737      1121
  74.7932      1119
  74.8126      1076
  74.8321       912
  74.8515       781
  74.8709       684
  74.8904       640
  74.9098       577
  74.9293       590
  74.9487       584
  74.9681       586
  74.9876       542
  75.0070       491
  75.0265       580
  75.0459       554
  75.0653       558
  75.0848       535
  75.1042       527
  75.1237       494
  75.1431       532
  75.1625       552
  75.1820       544
  75.2014       554
  75.2209       555
  75.2403       569
  75.2597       544
  75.2792       557
  75.2986       569
  75.3181       531
  75.3375       548
  75.3569       548
  75.3764       507
  75.3958       541
  75.4153       576
  75.4347       547
  75.4541       521
  75.4736       518
  75.4930       503
  75.5125       540
  75.5319       546
  75.5513       524
  75.5708       498
  75.5902       549
  75.6097       572
  75.6291       570
  75.6485       522
  75.6680       494
  75.6874       517
  75.7069       505
  75.7263       528
  75.7457       555
  75.7652       559
  75.7846       511
  75.8041       574
  75.8235       565
  75.8429       528
  75.8624       549
  75.8818       505
  75.9013       541
  75.9207       541
  75.9401       558
  75.9596       517
  75.9790       523
  75.9985       521
  76.0179       530
  76.0373       520
  76.0568       529
  76.0762       506
  76.0957       545
  76.1151       574
  76.1345       556
  76.1540       562
  76.1734       564
  76.1929       511
  76.2123       535
  76.2317       504
  76.2512       538
  76.2706       501
  76.2901       586
  76.3095       547
  76.3289       560
  76.3484       452
  76.3678       539
  76.3873       512
  76.4067       544
  76.4261       529
  76.4456       512
  76.4650       519
  76.4845       547
  76.5039       527
  76.5233       500
  76.5428       510
  76.5622       524
  76.5817       525
  76.6011       547
  76.6205       573
  76.6400       559
  76.6594       539
  76.6789       536
  76.6983       544
  76.7177       531
  76.7372       539
  76.7566       591
  76.7761       535
  76.7955       513
  76.8149       502
  76.8344       544
  76.8538       554
  76.8733       543
  76.8927       551
  76.9121       542
  76.9316       601
  76.9510       550
  76.9705       571
  76.9899       550
  77.0093       511
  77.0288       564
  77.0482       508
  77.0677       536
  77.0871       595
  77.1065       537
  77.1260       568
  77.1454       527
  77.1649       596
  77.1843       535
  77.2037       558
  77.2232       538
  77.2426       607
  77.2621       535
  77.2815       558
  77.3009       528
  77.3204       599
  77.3398       540
  77.3593       550
  77.3787       594
  77.3981       542
  77.4176       598
  77.4370       560
  77.4565       564
  77.4759       538
  77.4953       554
  77.5148       568
  77.5342       547
  77.5537       579
  77.5731       566
  77.5925       514
  77.6120       494
  77.6314       559
  77.6509       553
  77.6703       566
  77.6897       531
  77.7092       523
  77.7286       523
  77.7481       562
  77.7675       560
  77.7869       564
  77.8064       508
  77.8258       545
  77.8453       522
  77.8647       575
  77.8841       522
  77.9036       526
  77.9230       538
  77.9425       519
  77.9619       544
  77.9813       574
  78.0008       547
  78.0202       503
  78.0396       526
  78.0591       527
  78.0785       555
  78.0980       533
  78.1174       526
  78.1368       518
  78.1563       543
  78.1757       535
  78.1952       518
  78.2146       530
  78.2340       556
  78.2535       542
  78.2729       541
  78.2924       555
  78.3118       540
  78.3312       531
  78.3507       521
  78.3701       518
  78.3896       546
  78.4090       551
  78.4284       564
  78.4479       525
  78.4673       531
  78.4868       520
  78.5062       550
  78.5256       536
  78.5451       531
  78.5645       520
  78.5840       534
  78.6034       518
  78.6228       529
  78.6423       520
  78.6617       524
  78.6812       519
  78.7006       574
  78.7200       527
  78.7395       539
  78.7589       548
  78.7784       548
  78.7978       535
  78.8172       540
  78.8367       525
  78.8561       561
  78.8756       514
  78.8950       561
  78.9144       522
  78.9339       560
  78.9533       553
  78.9728       488
  78.9922       530
  79.0116       529
  79.0311       524
  79.0505       572
  79.0700       512
  79.0894       509
  79.1088       522
  79.1283       574
  79.1477       521
  79.1672       517
  79.1866       575
  79.2060       522
  79.2255       515
  79.2449       476
  79.2644       517
  79.2838       544
  79.3032       535
  79.3227       530
  79.3421       522
  79.3616       558
  79.3810       516
  79.4004       505
  79.4199       542
  79.4393       521
  79.4588       520
  79.4782       574
  79.4976       515
  79.5171       554
  79.5365       531
  79.5560       531
  79.5754       568
  79.5948       558
  79.6143       505
  79.6337       529
  79.6532       556
  79.6726       575
  79.6920       565
  79.7115       535
  79.7309       529
  79.7504       561
  79.7698       510
  79.7892       544
  79.8087       521
  79.8281       492
  79.8476       479
  79.8670       535
  79.8864       555
  79.9059       528
  79.9253       486
  79.9448       523
  79.9642       510
  79.9836       520
  80.0031       521
